1.27957686354666
1.25381649886948
1.19843860494495
1.12934998162477
1.04179439433812
0.930839272801771
0.790533747444843
0.644225828964302
0.484657053204792
0.326264648916876
0.198095318066601
0.106670552613629
0.0523152120258668
0.0114559089312591
-0.0258909672520459
-0.0630129388320843
-0.103663315103357
-0.13996249680242
-0.180772935884111
-0.228850162436296
-0.279118825642253
-0.329314753379389
-0.366798465427835
-0.406720918956602
-0.447910275368851
-0.485669396090666
-0.518269328566589
-0.538913088176681
-0.559719438837104
-0.580842843531745
-0.596070625193953
-0.606596363918107
-0.606787495459894
-0.610812344745125
-0.61647767066583
-0.622988167113168
-0.627254206188392
-0.629092582076564
-0.640450710483765
-0.656148183376198
-0.676382551183776
-0.68262857914635
-0.634577268698857
-0.459472184087761
-0.128033966417495
0.296882357844518
0.68675292179503
0.954197940030536
1.14847848673294
1.24459988259703
1.26615609788123
1.24253921157067
1.19220106097755
1.12912902855327
1.04972835131107
0.950324836871621
0.829240345567983
0.694014687003863
0.532973247536041
0.368478902922005
0.22492427177643
0.117605660969495
0.0497189602051987
0.00237705951970591
-0.0341189900853974
-0.0682787611936766
-0.104405882539345
-0.140434204183762
-0.186112040500406
-0.233630217947717
-0.280198536778891
-0.324194838355532
-0.356535995874249
-0.391965503151179
-0.4294208639758
-0.462574710354337
-0.486921217118661
-0.504118119801374
-0.526857370747921
-0.546718091671348
-0.562673477081824
-0.571220045885839
-0.567997879916489
-0.569583084987547
-0.573085738439722
-0.57685873982231
-0.577754601749365
-0.575018931788455
-0.580735799018752
-0.590022136596009
-0.603115007339391
-0.617825626053811
-0.62434506754007
-0.585544802249095
-0.427385783328484
-0.0986765611454507
0.30837432151057
0.663420266878375
0.978534809671316
1.1834829724436
1.2785964601138
1.29174137905166
1.25588807342594
1.20583833945643
1.14295324691927
1.06374796042622
0.961831501503025
0.841414732744286
0.689308258250683
0.515866974935285
0.34494775532016
0.199024731633832
0.0972913146420477
0.021908690214625
-0.0300512575682741
-0.0708439580576482
-0.106607107419626
-0.13989382878021
-0.182691438040233
-0.230270332745864
-0.280987227430262
-0.326160078457268
-0.36440706403344
-0.40732046981703
-0.446252044384686
-0.483012034996365
-0.511567317238035
-0.529600247129457
-0.552616985596528
-0.575107478723984
-0.593000334685283
-0.598891812788708
-0.597242088827379
-0.596854796255425
-0.595541459676214
-0.595957241997561
-0.59718888854192
-0.595317499977225
-0.599387733503098
-0.608452330159194
-0.624189078316485
-0.634416615775673
-0.628456003300223
-0.558718119083181
-0.358155022573104
-0.00649265875789807
0.396026980300077
0.728679569690558
1.01007957955543
1.17792562922477
1.24654689595947
1.24713405526973
1.21143071647082
1.15798450216518
1.0872013858328
1.00053445768046
0.896542846035538
0.778892721156676
0.628201071277093
0.463699697266852
0.303271240430017
0.176694056231099
0.0885973100530127
0.0230780906614266
-0.0185898161023787
-0.0515526007334018
-0.0803409079020212
-0.106511309241756
-0.144159310659123
-0.188150793505882
-0.234897096845839
-0.274664349307935
-0.307919290540844
-0.347766428380459
-0.386907583388421
-0.423276530123716
-0.45306333753007
-0.472286240685006
-0.495524915010472
-0.517049410381984
-0.536256079943728
-0.54906409502883
-0.556316664382504
-0.565422635637363
-0.569506978617209
-0.57607535049236
-0.5802970238506
-0.579874746752675
-0.586233643956929
-0.595560478850205
-0.610056744364671
-0.621284141010139
-0.631461962789586
-0.628730441834254
-0.552198094340998
-0.320165734580525
0.0363839375949093
0.406181167218427
0.781758980902938
1.05617977738822
1.21258667083269
1.26484501526345
1.25341117101979
1.21582748628327
1.15667677338823
1.08348576740991
0.995701508117047
0.893482998664842
0.760798976048786
0.602782360277121
0.431069962685169
0.279456340246119
0.159861685460258
0.0618250371641269
-0.00321061357644454
-0.0474110679035093
-0.0788327006373361
-0.108650675594962
-0.144642224092829
-0.183638919655214
-0.226980939671412
-0.266541578801841
-0.300744811944527
-0.340555795065624
-0.375720457992992
-0.409387699980934
-0.433659529655816
-0.45484620113541
-0.479866212979968
-0.500819708495508
-0.52023590313087
-0.531215797605681
-0.536976163043169
-0.54485309441266
-0.548033637815586
-0.547746106949976
-0.542173269807437
-0.539930554851184
-0.545496755304641
-0.552230102335824
-0.562279769229434
-0.567372155683418
-0.574560951130929
-0.589023897065415
-0.599179970725499
-0.539332760112
-0.377809533897713
-0.0765353217553081
0.334971669215373
0.751694777088874
1.09173806474317
1.25294026984376
1.30328777495764
1.30149704448233
1.26249600899718
1.20192953642483
1.12529484959532
1.03472838475937
0.926362307182847
0.796170290969124
0.634746516343915
0.467447973508676
0.311738914826053
0.166397474343456
0.0548211662768828
-0.0242322128868241
-0.0739644585105688
-0.1091139318467
-0.144440537711682
-0.183274927649778
-0.228304124912012
-0.271350018872547
-0.308735759912496
-0.349405322467336
-0.388566788305345
-0.427349400110372
-0.454817644891655
-0.477389544597475
-0.506466711536623
-0.53214518210855
-0.554149774754611
-0.565584742636019
-0.570801070822045
-0.579975297135129
-0.584763040934752
-0.587902069660501
-0.583017827616854
-0.576586028777075
-0.576830986489619
-0.578227628533693
-0.583832009879191
-0.58564102505596
-0.586469485862587
-0.596682051795369
-0.598902532536615
-0.525555916253896
-0.345838771533058
-0.0344581796422699
0.383367332917536
0.774166951575565
1.06103939777772
1.20291451143754
1.26294311604286
1.27152220357308
1.24032362960984
1.18353400732998
1.10711436014946
1.01959878452665
0.912665167914515
0.783203102094096
0.627541733901078
0.475890100352897
0.323051674514819
0.181161782851982
0.0755031834800869
0.00244869290241313
-0.0403049962782822
-0.0734355977800329
-0.111236227247651
-0.15002773012889
-0.194405728753017
-0.23166115440799
-0.273379820813268
-0.320106935205707
-0.362974106639116
-0.404624645492726
-0.434373472390099
-0.460753194991404
-0.489812932450653
-0.514930487524128
-0.538022126506991
-0.550122874521572
-0.558257424300802
-0.567831003316582
-0.573453752373407
-0.576478476889503
-0.571369130192591
-0.56516713980753
-0.5644267493753
-0.56383813799954
-0.565846747680002
-0.56413512516251
-0.567239064321665
-0.577161749538524
-0.589206306973433
-0.575266262983437
-0.491037685382321
-0.275419638853318
0.0905193237334179
0.511015883513957
0.879392610216814
1.10357317495202
1.22712860506404
1.28502034329582
1.28061627454039
1.24055540323041
1.17648248459797
1.09953380559493
1.00774214021565
0.897580289951259
0.762663151346935
0.616856994897379
0.454584266637168
0.290341178817935
0.153447269742907
0.0497109422509148
-0.0172232797643468
-0.064076744696731
-0.106183143789946
-0.145811181771331
-0.190051728741734
-0.230819298334826
-0.275294561246724
-0.322454400624562
-0.364774644082525
-0.407612478594654
-0.441467916908988
-0.472892562544217
-0.50638470656696
-0.534069150843985
-0.55714209165221
-0.56826750711436
-0.579235134419624
-0.59204300351348
-0.598011518463428
-0.600204627523808
-0.59620622548847
-0.587561873310937
-0.58129259347029
-0.574237944090123
-0.569816368681084
-0.563095898035594
-0.56071398323576
-0.56540850465444
-0.575158318324893
-0.574352006230266
-0.521807567509292
-0.347660741096965
-0.0201296829860919
0.396416612135493
0.791401420836572
1.05009160942636
1.21039669922221
1.29055270871795
1.29759287329431
1.26533786884902
1.20858915420022
1.14237131443121
1.05958786414156
0.954710955071972
0.819521634884425
0.671332197297169
0.50560147114276
0.339207862342033
0.197177771904124
0.0894429811561553
0.0209512034255181
-0.0315365291573138
-0.0767922195661703
-0.117802035463178
-0.16350684599969
-0.207762611003117
-0.256860121537975
-0.311027773156136
-0.362675981494229
-0.410109603270822
-0.444750195409383
-0.481932121328426
-0.519561051498889
-0.552248179650053
-0.582821364462451
-0.602495017945943
-0.618373700519078
-0.631806503291674
-0.640214824784858
-0.644698220586342
-0.640678160758857
-0.640917254821244
-0.645458805335627
-0.647704627284299
-0.649862465435511
-0.64671232847877
-0.652176711592947
-0.661279514683397
-0.656141964754695
-0.59345395741878
-0.433823304139022
-0.126582689491472
0.282570396566458
0.678527336309216
0.981578785361021
1.14166132308417
1.22187298474503
1.24463174491813
1.24201723830183
1.21559275214808
1.15245975442405
1.07948839705596
0.986472307505708
0.869698365428863
0.722220729378628
0.572603473714438
0.413610430402948
0.264148004469954
0.150628053683569
0.0713180515119226
0.0248738454113299
-0.0148248056430704
-0.0544695656556984
-0.0955236053609013
-0.142061020205229
-0.182711919800204
-0.226939900670573
-0.275312568257636
-0.324523953907021
-0.370224790234557
-0.403139611028566
-0.438942012290206
-0.476280176443925
-0.510762900500454
-0.54328676705846
-0.561843700196041
-0.580603569458093
-0.602111761630826
-0.614934643491052
-0.622131110963244
-0.623065649362428
-0.628915819129054
-0.636426177633344
-0.642545265212206
-0.648051045554177
-0.652185991717937
-0.663769302797307
-0.679120590747747
-0.693377616990564
-0.66870656132113
-0.557670531538123
-0.288551253663151
0.116077644092991
0.553691525697529
0.902357680766022
1.11107677980924
1.24570836130532
1.30065241576988
1.30160954365349
1.26431640232836
1.20354322225864
1.12926595913586
1.03690675595557
0.916678009509347
0.774805218130141
0.625835928042158
0.456366295710011
0.296677871458677
0.167643875772014
0.0768528563303949
0.0215680900365319
-0.0221374350254092
-0.0638384209121537
-0.107195942380111
-0.151508232658191
-0.191734896317723
-0.238852294676006
-0.287347674466863
-0.336311608915786
-0.381629890964924
-0.412195062623752
-0.445748447732869
-0.481015160535348
-0.51399372335928
-0.540223186612062
-0.554310460296244
-0.572260594871243
-0.588766836062813
-0.599791077782066
-0.605568641182539
-0.602070768644301
-0.59990821164511
-0.599434560708579
-0.599738749158507
-0.602076047124977
-0.601966216895049
-0.608555650008605
-0.618788813752278
-0.633371276868198
-0.640250933285903
-0.597107035193432
-0.429583805857148
-0.101932068586983
0.335975071604674
0.74404658326189
1.02193978132649
1.2182122147495
1.31297386303831
1.33207074289321
1.30426771143661
1.23910741668036
1.14841359464989
1.06606351944538
0.962263375003921
0.835976265518589
0.689083448201822
0.514960219468331
0.342621871712525
0.193574614368432
0.0817267504288507
0.0107426604258464
-0.0407525619006221
-0.0793042544567218
-0.114273237499521
-0.152516515143671
-0.189499043959539
-0.234656800307943
-0.27917333643217
-0.324613626058655
-0.366872463444911
-0.402605634369421
-0.442298711742355
-0.47786375576989
-0.510994847325346
-0.539610209820639
-0.556579774091069
-0.57515552259013
-0.592556218431123
-0.604740066817658
-0.607836671719083
-0.603958995433337
-0.602460930902583
-0.601238557366526
-0.602402286061321
-0.60274962928898
-0.60227193943584
-0.612407364890398
-0.627194494703118
-0.640271962298425
-0.630388202953107
-0.551854124521868
-0.336846594548438
0.021799463985141
0.444553473194397
0.801753825265083
1.02426751406722
1.17027083551939
1.22921398111718
1.2309026970039
1.19474123390003
1.13724980731733
1.06844379620284
0.987187835566668
0.885367752523849
0.760989842972711
0.6230292315417
0.461991072750295
0.307371052541453
0.176148270879049
0.0839366188543895
0.0267038433268117
-0.0176459157932251
-0.0513823886423627
-0.0857608233993321
-0.118107408000859
-0.150948369497786
-0.193878066475043
-0.239911742495704
-0.285475055978286
-0.320964726240426
-0.350396418232045
-0.385809142604808
-0.418667155965849
-0.449964129174637
-0.474601172666883
-0.492677768585863
-0.515593905871014
-0.535375988187378
-0.549952265429778
-0.555932305227308
-0.553505733619966
-0.557923824154165
-0.56242556095376
-0.568443505609707
-0.572319208716209
-0.573334331053345
-0.584551249514929
-0.597984699846778
-0.615129463743932
-0.630428001058472
-0.624746241270855
-0.545668137243555
-0.324496588214031
0.0474432101401739
0.455007988635199
0.779344264887556
1.04398707257595
1.19548738234949
1.25235912203814
1.24424509199394
1.20096055981821
1.14455899589742
1.07331142084288
1.00438919179758
0.906903379991956
0.780467151962618
0.624088680914043
0.451749319351331
0.286910417821825
0.155798649387976
0.0626452653949893
-0.00704621731225404
-0.0525444966508837
-0.0902506078557255
-0.1213767702125
-0.154414750236079
-0.196893930297435
-0.241831515309431
-0.288358121373204
-0.325825052536008
-0.356886772119186
-0.396451670569597
-0.431171242882259
-0.461489099236739
-0.480309918294094
-0.49721680180284
-0.518081022543341
-0.533800543108099
-0.548296392310565
-0.553068225773036
-0.552958653369161
-0.554654686056136
-0.552469511859871
-0.550593841241817
-0.544526274513429
-0.538935021592133
-0.541945270665769
-0.548745709685475
-0.561566128652855
-0.569965802047786
-0.579052556987469
-0.578762379834865
-0.512337065282763
-0.294352351674867
0.0290329346184366
0.421446117613851
0.827603196824172
1.11852511810542
1.28480903679293
1.33782231254973
1.3220001696695
1.27893325535517
1.21472043517552
1.13494786489941
1.0400326547173
0.930743620623495
0.792730965761227
0.62739719079131
0.444759307572521
0.278429526692667
0.145856594749597
0.0359205920621069
-0.0399471220998771
-0.0955034219255289
-0.137477332005735
-0.17585167937076
-0.219753530062357
-0.262827196251145
-0.310578024872486
-0.355357527927591
-0.394322924800806
-0.436946283345109
-0.476970467451629
-0.514474502592856
-0.539022139826361
-0.559331792844495
-0.5840330235923
-0.60289310519882
-0.617653041628183
-0.622980566148437
-0.617087975020138
-0.609265122817842
-0.599376261689902
-0.591393422568194
-0.579627035347586
-0.570745624912182
-0.566921770017586
-0.561412863619471
-0.563084937985976
-0.566160931763142
-0.57043295258718
-0.553679930317671
-0.44775723990949
-0.181352965283504
0.168767663674888
0.555106372736121
0.926543818285148
1.17758419552174
1.31628599635467
1.35568803752968
1.33687582566828
1.29178971077149
1.22883985313524
1.14665639032991
1.05360383004653
0.92003914907432
0.74103689411588
0.569876935895665
0.391506699834419
0.243236478295702
0.115142042830587
0.0149917235689791
-0.0513969191435863
-0.100899441191558
-0.13703289146824
-0.170829795433995
-0.211889691760968
-0.258307489947672
-0.310301690158137
-0.353547432314054
-0.395378691990187
-0.441023427609418
-0.480770882496342
-0.517134142520627
-0.541824493146787
-0.563852311584925
-0.589350580649788
-0.607194784843367
-0.621392939719603
-0.625779538628427
-0.628628305560276
-0.629821314793838
-0.624870435546797
-0.620789556099194
-0.612049762897388
-0.607108967024713
-0.608340062168269
-0.608446193594669
-0.614786357930934
-0.614945826879524
-0.616872674747355
-0.578480224669096
-0.429035053152343
-0.111695176043038
0.26918561565224
0.654759581735188
1.00790163373192
1.23274461930007
1.34739416253361
1.36629416027769
1.34548493434488
1.30178589029598
1.23791456378549
1.15554300688283
1.05617790029208
0.934475915299264
0.77982641304703
0.604481691958051
0.426461918896295
0.279537994093691
0.154831136855891
0.054466674906232
-0.0134441330347977
-0.0680953692069996
-0.114653334629782
-0.163930029936649
-0.22228032774253
-0.283116752563856
-0.345418302020162
-0.394964301083852
-0.443780950997659
-0.494470828345412
-0.541488211284427
-0.586511143390195
-0.616258354155228
-0.641313898460102
-0.668194230564562
-0.692189220851609
-0.711253444918744
-0.71475235195774
-0.713973389550425
-0.712673281753018
-0.707783382763654
-0.704621663317485
-0.695533791998158
-0.686358175351362
-0.685230404104018
-0.691607951726158
-0.698647740633467
-0.680857698605811
-0.587151007421988
-0.343908872496571
0.047936236166429
0.491118023148902
0.834062272390652
1.10114676797271
1.26216277800353
1.32714440497747
1.33458750141853
1.29914259667679
1.24759626205639
1.18281111457533
1.09880810648697
0.987522333428072
0.854214751134829
0.691222891242308
0.514171305831532
0.35339841668117
0.242514561038197
0.161331857236849
0.0970058245947916
0.0443698719585188
-0.00312023650719859
-0.050896259093973
-0.0975350108235771
-0.151925942500005
-0.211406663277583
-0.270633363795677
-0.330756663033353
-0.380810207107296
-0.4302433864987
-0.481396310494181
-0.526568204038339
-0.566153551259035
-0.595692353464421
-0.62674026656923
-0.653732254126657
-0.674022230411434
-0.690145189077743
-0.695130837387675
-0.697951641629049
-0.69883132473894
-0.699501049860871
-0.701791860648577
-0.698416339655839
-0.702294554054225
-0.709277793481765
-0.722352936280807
-0.715469535675364
-0.643429716807016
-0.440158791492476
-0.0834448291594315
0.348093241932237
0.737752537303133
0.986276675989127
1.14823853715124
1.22812797490337
1.24496290385721
1.22638385079661
1.18401751538714
1.12847390255665
1.05776963002763
0.961285582387272
0.838320417063124
0.702907098137329
0.545437094712206
0.388271033052207
0.255429212415462
0.157767571551812
0.10225334769743
0.0603047009748745
0.022385116157009
-0.0147030053618649
-0.0546471821232902
-0.0915173194643918
-0.136980587142307
-0.186491111301749
-0.236544138505881
-0.284665880841466
-0.321924036466369
-0.359994009213335
-0.400158125609385
-0.438304821080771
-0.474115426689413
-0.499668945356412
-0.526278834472772
-0.55492353973752
-0.580928203634372
-0.602788188251122
-0.613640204023064
-0.621261633660735
-0.631335051811031
-0.640371824991102
-0.650534164892827
-0.654675262117488
-0.665481028082854
-0.682151953938353
-0.702948337581876
-0.720372038274082
-0.706407514374037
-0.606410819104547
-0.352198439146078
0.0415571210177971
0.467407557741275
0.786732939288178
1.03231507659677
1.1783022424709
1.23338732314913
1.23255806641492
1.19429842801806
1.14866665474672
1.08894333638445
1.00907887944695
0.905532572105323
0.783847031831499
0.632003564984532
0.466001588103141
0.311251977688392
0.188569604156019
0.107407080712187
0.0502268972291313
0.0149766557611884
-0.0163772645506521
-0.0496595296681272
-0.0804301149062208
-0.120181098789606
-0.163694838511451
-0.211096025313589
-0.256274294052221
-0.292321161949268
-0.331392389572515
-0.368660455204246
-0.406131993536329
-0.444037843115841
-0.468629725950598
-0.496087524399326
-0.521751938264561
-0.5443717033249
-0.562554515487737
-0.572977635935241
-0.58735770651734
-0.596872469767993
-0.603899183343102
-0.60996455903633
-0.610833400072436
-0.619296388546396
-0.63106043578264
-0.647823688550881
-0.668497901368555
-0.681808910989813
-0.673966115637641
-0.571496587108947
-0.306081223308397
0.0906080946901982
0.467357237842333
0.81897356184463
1.07457357334804
1.21109830107091
1.25630918378737
1.23786486613337
1.19952917259669
1.14567898763618
1.07693095223262
0.990623575546042
0.885829249681339
0.751882532019233
0.590603163834355
0.4192717923007
0.26863270741882
0.158505834112375
0.0720820985084644
0.0149019250897937
-0.0237828657402869
-0.0574835291979971
-0.0870660971619188
-0.123240356044342
-0.164179992509386
-0.206504570702747
-0.247668489224994
-0.279535886488805
-0.32007605051282
-0.355743929650312
-0.387659180658727
-0.416283683079396
-0.43702003250747
-0.464134302049842
-0.486274222343802
-0.507787287626845
-0.521181681050745
-0.525938787212247
-0.534081396028386
-0.538518468550755
-0.54183304283233
-0.542282389036027
-0.539816873724925
-0.542455568995229
-0.546218762708534
-0.552127518128816
-0.557382196409937
-0.563882091469433
-0.580179596360334
-0.596826292687949
-0.56288566931642
-0.433290313298615
-0.177892692112612
0.218890387170591
0.633034040898882
0.966173544339958
1.1638292878291
1.23982216157383
1.26029247641207
1.23620253361014
1.18558102580973
1.11604266692769
1.03653406248444
0.941777493794709
0.823628158423804
0.675259193446836
0.512018466010509
0.362500604437178
0.215805092263238
0.101956682747404
0.0148923577275262
-0.052043099533144
-0.0852258031905314
-0.116043370349565
-0.149445151548113
-0.190354127779344
-0.230063196822997
-0.263809155905033
-0.303220696255352
-0.345890268442497
-0.388742102245161
-0.414241732104249
-0.435799623427146
-0.461350457177027
-0.485809606628597
-0.509523248025132
-0.526595633221794
-0.532128416873156
-0.541468229236477
-0.549937285384759
-0.554283874697267
-0.551608101953628
-0.547701494251577
-0.551541901202659
-0.556224201431957
-0.561671164630027
-0.565730244478941
-0.568382397576105
-0.580905001827915
-0.5984927679087
-0.602159711636679
-0.554208004402648
-0.395593628222836
-0.0751713143213228
0.340692874152589
0.743517586619856
1.0315895770137
1.18204674703815
1.26458873522085
1.27719289366496
1.24519970138611
1.1878466755423
1.11589730456776
1.03288923557537
0.932914968647595
0.807727135015576
0.661155412139964
0.51038446202871
0.344072496063008
0.192535227433018
0.0724069569359793
-0.0072429779865268
-0.055316792397384
-0.0937988919505174
-0.129471678139766
-0.168839306374696
-0.203524464377852
-0.239800472035535
-0.283641319722012
-0.324786756169889
-0.367579562625638
-0.401413536266711
-0.42655575131866
-0.457673260504494
-0.485246405442174
-0.511227480798661
-0.5257606651023
-0.53629996541899
-0.548116190054165
-0.555381374001723
-0.56114865351185
-0.556933644818103
-0.547687524996017
-0.544527354669578
-0.543149653327711
-0.546849118292503
-0.545698083998122
-0.547336606512766
-0.556768240715167
-0.568273278331434
-0.586273916418972
-0.589744140014322
-0.540621046940017
-0.364456645382375
-0.0349007827999504
0.392124522508872
0.757061131466647
1.02672294245352
1.21514683290851
1.29437008344314
1.30500467024806
1.26536147757585
1.19975746717454
1.12066221027091
1.0319390351147
0.924013459251429
0.801910455969034
0.656516789464296
0.481748847541478
0.310984852394254
0.161056247907943
0.0537303551349587
-0.0167399968040695
-0.0457120251471076
-0.0714653974620717
-0.114311891569307
-0.150692055722438
-0.191042576433071
-0.238960047207491
-0.287032812373319
-0.334388760908044
-0.375251104536579
-0.413164867246852
-0.44871850867955
-0.481794264403081
-0.514613229292792
-0.53638952904744
-0.553996390977632
-0.572869342910744
-0.587936085725696
-0.599138304964951
-0.601257030281652
-0.596695875985667
-0.593407857524837
-0.589008647263998
-0.588500225412082
-0.58579302032804
-0.582687872597277
-0.585681033486214
-0.591168958946275
-0.601598865798809
-0.604455788822074
-0.576753036897535
-0.446741018249736
-0.164568182034978
0.248517441430862
0.635770516815395
0.946750155306001
1.17805657130443
1.28622380536408
1.31400010104465
1.28256502576298
1.22201250954679
1.14845905217031
1.06308846202601
0.961845230580626
0.846165535045792
0.70882486339396
0.546329396331737
0.382399917860859
0.235239366819643
0.130259048188418
0.0552726032665703
-5.81489320580133e-05
-0.0397226654307383
-0.077941187183216
-0.112715844888349
-0.152206856211403
-0.201556990840193
-0.251452398525742
-0.301365370553323
-0.34018436841851
-0.379632851609735
-0.427152659525176
-0.4666110488344
-0.503602156677216
-0.526247360549385
-0.546640974404569
-0.570597146917817
-0.587428247968768
-0.601012907641361
-0.605347694307979
-0.607968809564367
-0.614507928528356
-0.619535531156428
-0.624901588458262
-0.6236679888295
-0.622622565785131
-0.626047648509029
-0.629977648735422
-0.640961840831329
-0.642486741075742
-0.627851191140847
-0.522268928427141
-0.274290546884847
0.125508908564873
0.508752180407723
0.872645930488977
1.14638478665294
1.25143523879761
1.304020522773
1.28314968600557
1.24222762460827
1.18316148990868
1.10921334182399
1.01953868121123
0.909043915193175
0.769467784722238
0.612295619497323
0.443727168916936
0.303028927854196
0.185369428210144
0.0980659498566902
0.0322133579520696
-0.0125937602520317
-0.0800819190228398
-0.123323681065746
-0.159538105010899
-0.205732508721542
-0.254666809702097
-0.299052035333782
-0.330737466393706
-0.37058333998519
-0.408440401207122
-0.443162532135728
-0.478988724341734
-0.499648658904238
-0.523201358682868
-0.545403830500227
-0.564000269924142
-0.574765256328196
-0.576504171747952
-0.580299767097656
-0.585593314203144
-0.590300660772842
-0.589920705293129
-0.584321640606517
-0.584938937259612
-0.58938519997054
-0.599070790058053
-0.609283236467778
-0.617455353316005
-0.626395333417973
-0.598938947612929
-0.451876835019852
-0.179615262526796
0.179218544139638
0.603549972999481
0.954792704475504
1.1856698089651
1.29057701042916
1.3045715646275
1.28065506502851
1.23030456146457
1.16182963427824
1.07784333384248
0.981893433718469
0.863993331291015
0.71868598230059
0.550967159226248
0.385956214842124
0.247996905331822
0.126578132403237
0.0366537135522876
-0.0246726472139463
-0.0662913564677871
-0.100906314342716
-0.141417837530243
-0.18280049118881
-0.229218875256396
-0.271850581192526
-0.305461093253059
-0.345693175405581
-0.383980927483048
-0.421410346882699
-0.450887348671237
-0.472199211051072
-0.498471758589189
-0.521096898471558
-0.541579352404703
-0.556329734311715
-0.562071490387087
-0.566451127500329
-0.567599165293729
-0.568426168049398
-0.566034491923373
-0.559740238307022
-0.558236617537359
-0.559085663523186
-0.564977075529712
-0.569207430943716
-0.572994979201209
-0.58415615467838
-0.595265092668845
-0.563416971830566
-0.436166464153895
-0.178888752149356
0.224253996952376
0.651172250546673
0.999136868064295
1.20807187836199
1.29006743108026
1.31367914852435
1.28750165156329
1.23225262434307
1.15694937752056
1.07172361216781
0.972473026021
0.846498955763088
0.691759559987252
0.523714040010192
0.368969835589275
0.220268730449105
0.101743504580878
0.0184603611908477
-0.0360515321873143
-0.0722739090749074
-0.112043650380767
-0.156736625736761
-0.201306034502581
-0.247535201090285
-0.287523337565975
-0.332601557780889
-0.378262669377139
-0.418909112706229
-0.449549840241933
-0.475239411574392
-0.504559027831141
-0.530525946456199
-0.555240470279369
-0.572831019342484
-0.579936680236941
-0.590017941144804
-0.596857067344154
-0.598377273118568
-0.59216301353917
-0.583430279968944
-0.582931600957503
-0.584899110403333
-0.59150972674778
-0.59382581284265
-0.595866743392324
-0.607345583078433
-0.616759071925534
-0.57337892930711
-0.431589789733536
-0.168415774211441
0.230644254122811
0.640596306421675
0.969200536937637
1.15291145007384
1.23604225704472
1.26441316660981
1.24216113661341
1.19402946014386
1.1283960843933
1.05227425082141
0.958354228281213
0.842533179125989
0.698156082196625
0.549025478268288
0.396403209800021
0.247549856071731
0.130698212029718
0.0435716657751961
-0.012622257377551
-0.0508272193156308
-0.0877690839404506
-0.124803384307443
-0.166628934085145
-0.203657905746314
-0.24211638993596
-0.287580219626273
-0.330750247460626
-0.372737817007697
-0.40623598103265
-0.432911403827853
-0.464577859248405
-0.493690780104873
-0.520277673081623
-0.53512392413193
-0.545650679245874
-0.55965535694204
-0.571284727192311
-0.579945046763125
-0.578892480955302
-0.573692950891007
-0.57555054908877
-0.577064764641822
-0.581890664239965
-0.583161366465476
-0.585675389994292
-0.595459540281612
-0.611415166167368
-0.620300848507452
-0.584285387851217
-0.447001323916775
-0.149375279287787
0.255168268684333
0.672449376462708
0.977151051804603
1.16886912510304
1.28255421542828
1.31259070862008
1.29657485845499
1.24440861019339
1.17315461349522
1.08940032307414
0.987551491540555
0.857554610696941
0.713074220969393
0.554952085442584
0.385714858497487
0.234028852737421
0.110732564413585
0.0277490232217777
-0.026978817276033
-0.0720026164709592
-0.114240806637702
-0.15958394289017
-0.194084978694159
-0.233609287683057
-0.282288140430291
-0.329552540726437
-0.376979805321009
-0.416075833182597
-0.447279143369356
-0.482790340287396
-0.514854296520278
-0.545224990719693
-0.562254283512017
-0.575973306814399
-0.589208618226606
-0.599707924472379
-0.608146845204559
-0.603081691735375
-0.597049818448371
-0.594756482046337
-0.591835975298721
-0.589986889453843
-0.582399576797733
-0.57523401656987
-0.574828632673016
-0.580630977303972
-0.593542869253392
-0.591096841482123
-0.541122863992871
-0.360814930390031
-0.0262876426687614
0.410890532901702
0.788347091114528
1.07294586368702
1.27657443164966
1.36348124286766
1.37825327782565
1.33800708832269
1.27809455932417
1.20386010455084
1.11479490358495
1.00367378349725
0.874975365195419
0.722767600076118
0.545372011324428
0.369168438033589
0.214704793383923
0.103112270685506
0.0188013959771464
-0.0461276723322942
-0.0984107100195398
-0.148487717820644
-0.194244402191351
-0.242416879867379
-0.296729636204176
-0.351304824144878
-0.404926200671623
-0.450647913330143
-0.495428449903904
-0.54283681248767
-0.585621597576453
-0.625355784904309
-0.653129755771779
-0.676414289294266
-0.699906063261688
-0.714702059948173
-0.722604054681678
-0.718741161938895
-0.712051803501625
-0.707748334796858
-0.701438901002244
-0.700038186060245
-0.69766984836172
-0.697274385799708
-0.702081960087172
-0.699888340157163
-0.636439005034577
-0.471927661588184
-0.160655980148626
0.266424706328865
0.681363324721219
1.00193915125643
1.17939126604072
1.26072386125935
1.29011007682552
1.27157147098205
1.22384705092638
1.15785987445012
1.08154675365036
0.985254583452275
0.865254081486021
0.71253540300238
0.559713307020331
0.413711997417899
0.275736565315379
0.171640496391507
0.102117694599639
0.0630657285411236
0.0308888777775262
-0.00260772420813527
-0.0389259523681589
-0.0797035890531357
-0.121890529463388
-0.168298743358219
-0.23314792713042
-0.298023101250766
-0.344562619031862
-0.378641418742477
-0.413344119289911
-0.451380451251175
-0.485381149853118
-0.5167352416474
-0.53329263045379
-0.55403840249999
-0.577031199062961
-0.596331871756517
-0.612098984989795
-0.616146210028746
-0.619111816055926
-0.627452416904644
-0.635091760483363
-0.642684234414565
-0.645171697098796
-0.653755154637898
-0.667219173156523
-0.685772780477207
-0.699771598352151
-0.669251854107141
-0.526165869004324
-0.22156576365558
0.20163903315634
0.625963992297434
0.924970414408556
1.14178641995593
1.26303947571686
1.30200426627017
1.28996764637258
1.2415154438681
1.17711638737515
1.10208952107777
1.01178163096888
0.896136243138549
0.762191067168789
0.599950702559923
0.427696559685075
0.275061037515266
0.152160463865322
0.0705709591775825
0.0124728907349694
-0.032209088627839
-0.0716246137675398
-0.109805039920771
-0.14454496749302
-0.18769991465506
-0.236326482998819
-0.283978608309269
-0.327687604676468
-0.360014590859992
-0.393630206716695
-0.430425120590892
-0.46290144979963
-0.492621743119911
-0.512447472550118
-0.533882861124672
-0.554535792989923
-0.571114465504238
-0.582767037770317
-0.583810788926131
-0.583869380526336
-0.585772828006661
-0.584786011387009
-0.582888887011397
-0.58080045268805
-0.584394420139005
-0.590468392257056
-0.601022229441263
-0.619455197241506
-0.63438790011224
-0.627936468206693
-0.53555714236681
-0.283059928789194
0.102838020710315
0.482733661676408
0.850325814817041
1.13077003108909
1.28497756623549
1.34162793613977
1.32822587638578
1.28445338057286
1.22421685585289
1.14776423098581
1.05428238660214
0.947211004854758
0.810708238867025
0.645270746251342
0.463891772964597
0.295305777942715
0.162911186210715
0.0521780089929135
-0.0256395290323774
-0.0805218448338811
-0.123457470995942
-0.159626987215868
-0.20138819104249
-0.247752504386889
-0.301264029987226
-0.337735698734227
-0.337989562522079
-0.371847524610385
-0.412877880255183
-0.453475068251612
-0.490321491286331
-0.516132535307412
-0.542405470141118
-0.567261663507278
-0.58856596055558
-0.603373974177139
-0.608921176208722
-0.615972461405863
-0.618562969034974
-0.618468112022246
-0.617096828249601
-0.612530986773224
-0.612564828800561
-0.615210318216455
-0.619738411480477
-0.624601418904355
-0.628862727220308
-0.621859591165022
-0.535344287283153
-0.3013589753828
0.0683425893430817
0.440198464906503
0.803817016582538
1.07634282102742
1.22634405543683
1.28207554308597
1.27192039922317
1.23902671664495
1.18702144433379
1.12076485616264
1.0354188497297
0.932925123101564
0.799772249759299
0.639939473482289
0.469282597933006
0.315301308826929
0.198384810777996
0.106653081287749
0.044926915000929
0.00426561837223988
-0.0305359992161326
-0.0624222319950215
-0.104489060618544
-0.152080779902821
-0.204357030041355
-0.255212667909872
-0.298410292592289
-0.348382356781205
-0.396524129971964
-0.44101091358898
-0.481354151429952
-0.509263599543873
-0.539999050485263
-0.568057373156186
-0.593543917432562
-0.614788865886064
-0.628409691096598
-0.643166620252706
-0.65330627025835
-0.660689717976405
-0.667192846204748
-0.667015138479525
-0.6736562470612
-0.686855586928177
-0.702343438941635
-0.716958121743818
-0.718991025932181
-0.673740537272246
-0.511677293364375
-0.184781979939698
0.203746013460442
0.564566843787195
0.890456727222413
1.09891192392964
1.20634771404818
1.23253200988039
1.20981756577846
1.16513932830521
1.10469227680071
1.02928252765543
0.942832609883311
0.843242302051749
0.711639481146004
0.557292797449883
0.39788677760036
0.261476202112489
0.162606934268109
0.0855930232933016
0.0363477335724608
0.00315620724985485
-0.0224003287849493
-0.0469062342254509
-0.0825101214758547
-0.120971142171922
-0.161324037659334
-0.20061548035701
-0.231827398496691
-0.269121890855458
-0.302545053426992
-0.336893893761324
-0.364690455065544
-0.385152450762069
-0.41202336451831
-0.43776866877435
-0.46272683056741
-0.482863737373974
-0.494640519768457
-0.508712551363681
-0.521183709661347
-0.532018661482179
-0.538125448548314
-0.542024955173847
-0.552538909524711
-0.566017073231952
-0.581004482044817
-0.59397695288009
-0.604266645406237
-0.620975011426955
-0.645374746019656
-0.649995132120904
-0.588250622506746
-0.406100916562688
-0.0609410521240274
0.36557978584114
0.766290490525037
1.04798575379402
1.19233644489955
1.26656901729795
1.27395134935296
1.2382471205682
1.17432729481372
1.09811138250821
1.01504216987577
0.914853463624183
0.785984359315849
0.635793430773315
0.48204731929526
0.318053290088146
0.175122580854185
0.0659451188559911
-0.00263964210564928
-0.045052881844374
-0.0811300557429539
-0.114884185602668
-0.150917319415241
-0.187193825801941
-0.218134017098495
-0.258320359317626
-0.301023030299419
-0.344568669422196
-0.378859984756955
-0.403112969072508
-0.433682553216022
-0.461034421196661
-0.486071768973221
-0.504718489141231
-0.514099372368763
-0.528808684088859
-0.540814372186974
-0.548951333805003
-0.549090856020457
-0.542921802395095
-0.541896572466665
-0.542020987927471
-0.546003674621993
-0.547211628944092
-0.550663008330401
-0.563323458679261
-0.575645534502593
-0.592882322142775
-0.604094007945639
-0.578715911325621
-0.444932657732566
-0.153448169468796
0.266235529598577
0.651028123883387
0.957460642369455
1.18915330914617
1.30060611488776
1.3301203372621
1.29688205444888
1.23515104735762
1.1597434230395
1.07186290656463
0.965708245427548
0.84223847914131
0.695590183123978
0.521544679345932
0.344081138615476
0.181895643014773
0.0620451381964501
-0.0180694263320214
-0.0752887392368316
-0.110840784228366
-0.141950119249351
-0.170908408221301
-0.202577051336684
-0.24112933358229
-0.280973153363135
-0.3262352586136
-0.358665545331233
-0.379854239867029
-0.415679967277613
-0.449537755408079
-0.482046233686282
-0.50472116607977
-0.524274305356393
-0.544097364147126
-0.559520789903668
-0.571561735489589
-0.575264888336738
-0.57251985037157
-0.570772586124457
-0.569603209815414
-0.572398702246297
-0.571931715483383
-0.571916669287211
-0.577435912399329
-0.58647098050307
-0.600627375855586
-0.608549066268749
-0.584368746431702
-0.460395015275941
-0.192342495038622
0.200523890867158
0.56613800992775
0.862979108584045
1.08848003753143
1.20077807666384
1.23631258071312
1.21536637710826
1.1692625150157
1.11086857909583
1.03917357039716
0.945219482470401
0.833668606115702
0.699907422818836
0.538423901558309
0.371954465756413
0.221283678937393
0.108994335181333
0.0336912723887756
-0.022319216725073
-0.0578198121873484
-0.087580409147897
-0.11277050937127
-0.138624978895691
-0.173281694422448
-0.211474183580398
-0.253701606706574
-0.289078119462534
-0.318193195041145
-0.351475439180792
-0.38214502295908
-0.412220815994903
-0.431495130519687
-0.44804565603322
-0.469795851274598
-0.48902758161422
-0.50547052644013
-0.510756970390507
-0.516520721995184
-0.524023376180795
-0.528401381297566
-0.534740729250514
-0.537434352900587
-0.539829229438781
-0.548470870975027
-0.560038102248259
-0.575591506456394
-0.586476884449946
-0.604009624714637
-0.605400283731838
-0.539027172133348
-0.323962562465522
-0.0139043674196386
0.354151385331727
0.732371322239588
1.00710837151089
1.17079197726679
1.22152510955714
1.21970202763534
1.18739341952778
1.12959485755604
1.05384288663561
0.966105046167128
0.866136782446497
0.743712675918433
0.599262847964509
0.438417172170769
0.297433527759884
0.171339133571555
0.0657568675128938
-0.00592477867476121
-0.0532703621524051
-0.0813630597417983
-0.104320673361335
-0.130961020026339
-0.159797883494673
-0.191265072902164
-0.216088201233559
-0.242624706938466
-0.27906559850865
-0.369386385425447
-0.424452659706296
-0.447751945146468
-0.467443414970746
-0.488222820460566
-0.506415876922602
-0.522044897370769
-0.527753376053617
-0.532558893291131
-0.538788927464348
-0.539198408360702
-0.539425549816661
-0.534463395387703
-0.533200520048795
-0.537422553587154
-0.541371424300423
-0.549750513717177
-0.554864075927965
-0.566542979991254
-0.582535527650062
-0.594428834760195
-0.539248266976539
-0.379289732210919
-0.0829858975356667
0.329027825458221
0.72670165044137
1.03129350438982
1.18837004190993
1.25917218780949
1.27152510286011
1.23541001188545
1.17643140096536
1.09975543399542
1.01297587899534
0.910256354880679
0.783867808478241
0.632629421101612
0.479298882865075
0.319155617942919
0.168666066485698
0.0510417565377905
-0.031732737852512
-0.0782863566879178
-0.114834922815103
-0.150267106830289
-0.187235018446116
-0.226399607930511
-0.258654418394684
-0.294610263013223
-0.332942721894622
-0.370590028852202
-0.405717879636499
-0.427574763283988
-0.452562627983942
-0.477179539128697
-0.498311100607182
-0.513158169228152
-0.517197213343695
-0.523791990589279
-0.53022416068549
-0.531581861364244
-0.528455252734837
-0.516333650224705
-0.507756021261909
-0.503914219139258
-0.503183807264419
-0.503917599439021
-0.50219730936291
-0.506906580881924
-0.517912838014461
-0.532652377076296
-0.542045721382475
-0.506536605753509
-0.359334564790844
-0.054512179670242
0.353891545168566
0.758663859313073
1.02924121781202
1.19636031141651
1.28000837919709
1.28726235767011
1.2533710577304
1.19012020879149
1.11567007350502
1.02366454534426
0.914339850338537
0.779114714629013
0.629187483941823
0.458621408993685
0.282654544334714
0.133305293725865
0.0189113376214355
-0.0540989205741863
-0.106837428112116
-0.148642157205992
-0.187100593110345
-0.22555602714161
-0.260382349105523
-0.297016376893605
-0.341284978518019
-0.384069101113952
-0.425772362707446
-0.437854712516216
-0.450633203900278
-0.48048244276185
-0.50589899797069
-0.531429679394162
-0.545172471692137
-0.556471054929744
-0.565120942702193
-0.568325926733171
-0.566013628868307
-0.555389684781164
-0.548696202980561
-0.544135525346576
-0.539758813097959
-0.537992658262353
-0.534044597624328
-0.535611292122781
-0.546733493395092
-0.559465679477905
-0.549132829672865
-0.474634071693162
-0.266507014372788
0.0879076321241975
0.500122889277355
0.865596175178212
1.08914224861167
1.21464958594053
1.26973494491289
1.26188609382764
1.21920837297881
1.15191013971998
1.07259440401428
0.98034156470862
0.868836580638614
0.736770285617529
0.592103791890193
0.423642212344512
0.256897326082277
0.11591217605942
0.0107985546404606
-0.053940956360933
-0.102380198110655
-0.14232633726091
-0.180873491613419
-0.218477113375699
-0.251638095930128
-0.293768185767543
-0.336133866601579
-0.378408755708203
-0.417604039752679
-0.443221904319635
-0.472177381379056
-0.501147317765912
-0.527603166255405
-0.547323200638843
-0.553391726607899
-0.562956308013398
-0.568328578450249
-0.573897023228631
-0.573560455829944
-0.563089094210305
-0.557251695223136
-0.551535547521318
-0.547956236789402
-0.542668399411219
-0.533834171196641
-0.535739396145267
-0.544022638896513
-0.552258602048411
-0.517732251506868
-0.396003639653432
-0.12717781551595
0.255971668619229
0.650484908925087
0.953659872396868
1.1235053653176
1.2238060370008
1.25423885142825
1.23746568855468
1.19119142054229
1.12570686092895
1.047767190301
0.955616777335595
0.839277786544823
0.700297748878962
0.549471409566886
0.379770114952632
0.220173815438885
0.0874382882640412
-0.00840319473899107
-0.0681107095749449
-0.115395599303362
-0.160378762511762
-0.207198214173044
-0.256387099211609
-0.301368100811053
-0.352003285857566
-0.404515085126401
-0.451502836203348
-0.497107378846959
-0.528409879233069
-0.567371109438272
-0.584668572188592
-0.552829225163133
-0.557154724133244
-0.563050876134815
-0.577085717354392
-0.58722931511005
-0.588606725403294
-0.581789101288533
-0.567809240989262
-0.558578554373117
-0.554131619848943
-0.553648007519315
-0.553005442256635
-0.549405598980715
-0.553352228889265
-0.541429091702545
-0.447141796369126
-0.211949931504387
0.104109876209049
0.481997298252284
0.81437089387649
1.03225287779784
1.13897246932392
1.16265890276344
1.15403095512859
1.11936897418007
1.06931345484623
1.0062988704752
0.930953250881089
0.834818043136001
0.711005258211442
0.559581851277238
0.401863263816785
0.268075144742383
0.147649561650519
0.0608075908949041
0.00293454422414992
-0.0366733942729141
-0.0717450546196851
-0.114138272436084
-0.160803608919034
-0.210305357123828
-0.256588244949179
-0.298051746458692
-0.344780396067987
-0.390459022141029
-0.434579839161713
-0.469827983445764
-0.495597313754025
-0.526204847157283
-0.55275994577752
-0.575778620858989
-0.590569864573796
-0.593967135801902
-0.598055608500853
-0.596853420381808
-0.59266561127242
-0.58427467201796
-0.576031251575435
-0.573666846253786
-0.572851840647202
-0.579558004624794
-0.585094806435612
-0.57245623949842
-0.497571991457104
-0.296777571595056
0.0389931297080109
0.390979012058361
0.677103492042074
0.902686800385073
1.02130621147723
1.06473824319317
1.06044242347999
1.03138062080908
0.989458144684114
0.939436862724614
0.876489207326699
0.800482232009329
0.703762962442969
0.575240710865012
0.433690161641368
0.295725087327083
0.186002573743655
0.116278124509233
0.0640873624606743
0.0278283720462962
-0.00512868333678355
-0.0346802499516602
-0.0639361319656999
-0.107331980308726
-0.156441808971078
-0.20658149089879
-0.254515444363626
-0.294164493383064
-0.338053143902898
-0.377379939270694
-0.414647771326393
-0.445359478570463
-0.469482488018289
-0.499907424008571
-0.524386676603588
-0.547011878653107
-0.563929101984926
-0.576190794336433
-0.589792897428699
-0.598353668860592
-0.607834012332955
-0.61263980660387
-0.616659559982317
-0.632764202742971
-0.65184995638406
-0.672162380798751
-0.672680951897915
-0.611938634706691
-0.409349525098002
-0.0516531292121689
0.378245105954037
0.731498470660253
0.959663346727382
1.10671945367678
1.16098464867766
1.16135845472077
1.12519614214331
1.07538078730555
1.01465858276218
0.944133975676458
0.856270671201661
0.74828901734112
0.619027371108423
0.461607255461638
0.3027612997541
0.165699610686774
0.0742140900268273
0.0168800560437584
-0.0244894987983075
-0.0562686601552704
-0.0923898180049777
-0.127319584979376
-0.162879113411222
-0.20647879140284
-0.252259404337762
-0.298484429434043
-0.333663365607364
-0.365972209926068
-0.405258033600081
-0.439782307464522
-0.471376105105972
-0.49646620329275
-0.516095309785449
-0.54658538348679
-0.573152295999169
-0.594495303186764
-0.597442866467889
-0.590056007188751
-0.582959615855692
-0.578218885622994
-0.578305525832881
-0.576752368297989
-0.577026719416569
-0.585889076235045
-0.600275952566674
-0.60877988937435
-0.57352670347505
-0.425203218203713
-0.107699275097079
0.314976387827104
0.720481451605123
0.992804252523048
1.1314919972696
1.20125019360563
1.20779507488727
1.18198488519697
1.13414608129219
1.07602017641026
1.00673994131925
0.918260763006458
0.798496391927624
0.655348668767494
0.498791401501831
0.327072646791663
0.175456989641803
0.063495535552873
-0.00286561638289835
-0.0436582790080434
-0.0795137319924053
-0.117802382314152
-0.164199701644491
-0.210089298605214
-0.253507808680826
-0.304328583054363
-0.355065250690209
-0.405701445737992
-0.444194498689416
-0.479208755355002
-0.519081343843302
-0.555100378224532
-0.585429069958118
-0.606205523074489
-0.619636842395717
-0.635102765303398
-0.645058623358001
-0.650399978655599
-0.647000744667176
-0.647124821247109
-0.653669555612727
-0.66310667771273
-0.678102774534307
-0.683972606505509
-0.694007487811531
-0.673574450027727
-0.545664656844943
-0.243861211593571
0.133675386578837
0.524005366976555
0.872912098766073
1.09027129276248
1.1987172008187
1.21704487262003
1.19786643986765
1.15741727245191
1.1035737080809
1.03798718155435
0.962137066797715
0.865345344689891
0.733758751289667
0.575362698491337
0.403273578440239
0.262057753358835
0.148039193548408
0.0608528910285788
0.00670698574123869
-0.0299768917357588
-0.0569275357133284
-0.0884780126019529
-0.133678453361065
-0.18496343427772
-0.237725688369851
-0.27790705981219
-0.318795191004847
-0.365389429332156
-0.409534393050537
-0.451648076033919
-0.480690118901262
-0.505091200209691
-0.533508948974825
-0.557911442153106
-0.583064777387988
-0.597190985814519
-0.607082893758351
-0.616006095339917
-0.617455327832087
-0.622199122589416
-0.62577808200795
-0.631627963076674
-0.644144410324418
-0.657298609800052
-0.67807239404117
-0.688641105727085
-0.664910306545007
-0.521759636953229
-0.207895067646453
0.235937848535253
0.636194009122801
0.941733340311331
1.15331095628556
1.24109315121468
1.25768788886024
1.22640105409263
1.17862592985077
1.11649079547817
1.0410594151415
0.946775433325506
0.838740514394018
0.703905501485884
0.536787456193195
0.363665813376554
0.207319242480294
0.0994505555706768
0.0244464155297096
-0.0299836358068624
-0.0670649997694037
-0.105292071421362
-0.142969197200617
-0.186384741018346
-0.237060152776754
-0.282957541210837
-0.330179861107325
-0.366466608387526
-0.405149071960852
-0.442966097430652
-0.474506182553722
-0.503256881439583
-0.519049479550721
-0.538537845224123
-0.557252240032296
-0.572486697345013
-0.58459185717255
-0.585740603785811
-0.584359299577488
-0.581514117212613
-0.575680836069251
-0.573041012376172
-0.569088763510782
-0.57149432898184
-0.580139519242419
-0.591562308242349
-0.604550798298524
-0.600812616551943
-0.539461362562538
-0.306525955481194
0.101341066026555
0.557332465729192
0.900081008109984
1.14768195027109
1.2776740889356
1.31343757663564
1.29484529705561
1.24086487621629
1.17285020795251
1.09348436909831
0.997894507976856
0.877911719389976
0.739182999576272
0.571311572176663
0.389389354205042
0.224203763090042
0.0916889135562247
0.00390422019407298
-0.0548173766488291
-0.0985846260157132
-0.137746837088268
-0.180438223988884
-0.221121954735944
-0.266230226426162
-0.318682790481039
-0.369055147309299
-0.420184916187014
-0.461206404954242
-0.500177992673943
-0.538958073176479
-0.571964559603934
-0.599705979378706
-0.613697889078555
-0.630181935418126
-0.646014045426546
-0.654645560194017
-0.657748386648793
-0.649053712924016
-0.641849076456451
-0.64287573369043
-0.645862591031474
-0.652910781478361
-0.653307337818013
-0.663871709539816
-0.668532339467232
-0.619706482658449
-0.435184387779204
-0.136571079163815
0.279492985523376
0.721094221586173
1.05039126184506
1.2400738355907
1.30151720690417
1.3051275588404
1.27226127273851
1.21725804723951
1.14692074265659
1.06515334724245
0.968809684444126
0.844441745938723
0.68700573798539
0.507710662276579
0.344153869287833
0.190651286868976
0.0692962039755812
-0.0108844508772819
-0.0625733813073652
-0.0947198557021788
-0.12525899817544
-0.163695172535588
-0.211383391531696
-0.263266173411927
-0.305327345694678
-0.351874654620207
-0.40123456706413
-0.449620798659135
-0.490867258138975
-0.517847634725562
-0.547952809312417
-0.575894156691898
-0.598568195070659
-0.616114981131047
-0.62308828202477
-0.629966120786067
-0.632827261321116
-0.633660509158471
-0.630184321108685
-0.619795284146748
-0.618138432294944
-0.622567614089857
-0.629972784736839
-0.637492454359421
-0.642698697287922
-0.625252105315758
-0.517284360969839
-0.232829647802577
0.175721367247436
0.584769253844296
0.96894978390977
1.24119695519821
1.31183738519843
1.27820766357614
1.25075645117843
1.19609206521311
1.13261405334204
1.05320678382727
0.967007158503113
0.864123353225937
0.729533502734885
0.563450317724872
0.384153635102606
0.217766842773485
0.0970244743392041
0.0060522595118851
-0.0541801989659187
-0.0948911234870272
-0.129689732259744
-0.160838229755925
-0.203498419051903
-0.252007244466731
-0.302612086021247
-0.35131543301078
-0.387896706592643
-0.428653274270621
-0.470308581457443
-0.508982389755002
-0.53825086486532
-0.556580950259687
-0.575924960131541
-0.594934319335998
-0.611207382241703
-0.618662921656328
-0.614830510609196
-0.613431427913327
-0.611422155307941
-0.610594570260158
-0.610181476026854
-0.607485709250801
-0.613857513757413
-0.623688570636769
-0.638615628309802
-0.638244242861447
-0.581479080641561
-0.385551083382246
-0.0224817269754296
0.439728938045963
0.848456707643486
1.10755938426112
1.27330158272883
1.33397015638072
1.32611098244563
1.2809417799709
1.21318069794594
1.13484118299261
1.04621888271158
0.935539468128957
0.796605892489861
0.638958328932778
0.454593064505293
0.275296686273954
0.126110149332178
0.0214303309854472
-0.0422602104180557
-0.0876770895951107
-0.128093169557416
-0.168924530778313
-0.21267929665854
-0.256337536349186
-0.31040915216574
-0.363329960992833
-0.414731182106664
-0.459118726161536
-0.497665745710176
-0.538606194243182
-0.57467500546859
-0.607810320376885
-0.633399588332987
-0.6480693749031
-0.664667114214309
-0.677825595112532
-0.684674502517537
-0.681787444637484
-0.6768301593839
-0.678941867045893
-0.681980880037603
-0.689658730060345
-0.694489735535881
-0.698717813618012
-0.692850727171611
-0.619368912026725
-0.383644696728109
-0.0230527106014238
0.382126322354153
0.797859604898619
1.0961166590515
1.26616567294657
1.32700149837248
1.32010177313536
1.28598044112851
1.23323109162454
1.16280161877453
1.08642000139824
0.972131137402913
0.777642925478774
0.602323574041604
0.422996506061851
0.258415013242324
0.133253525139424
0.0328566873072116
-0.0338425344092075
-0.078959475579219
-0.109454596205648
-0.137809277543524
-0.176103488210249
-0.219639360070808
-0.267915279697348
-0.313709863870098
-0.350912351024516
-0.395600719382362
-0.43852607582659
-0.479150807175461
-0.510442440808679
-0.530723464538818
-0.555467035404266
-0.580444449422919
-0.603636469899441
-0.616449798491342
-0.616161818733709
-0.617177612199074
-0.615710710459608
-0.617226239268056
-0.617947474541578
-0.618376386262156
-0.629420705803984
-0.64343388213262
-0.66316274413528
-0.670567768503427
-0.62608419193049
-0.451539492932712
-0.113039941531567
0.33620468605915
0.73696673525567
1.01628993025252
1.21369118806146
1.29732284221446
1.30861164672714
1.27432075347534
1.21538031614706
1.14398028813485
1.05853385486675
0.949960920114972
0.819323645225375
0.666893110668519
0.483452323606955
0.302247200430222
0.145229466599039
0.0371541297406849
-0.0343045511976813
-0.0871739138083583
-0.12754118900966
-0.169223912910192
-0.207956507533896
-0.247938858207731
-0.294937569575921
-0.345012820034477
-0.39473233208954
-0.432629668131925
-0.467098878656141
-0.504303062667053
-0.535766023273912
-0.563486731218863
-0.582301272861728
-0.592157632458137
-0.606850266263094
-0.615543780094885
-0.618798105037177
-0.613522196726277
-0.605728937286185
-0.604004540635565
-0.60176663054772
-0.603169414573527
-0.601734473445775
-0.603935259135793
-0.615216259172077
-0.61896724428076
-0.54751294451032
-0.361878596916847
-0.0294726682448676
0.420675031701429
0.834815073555606
1.13409099072526
1.28367099023782
1.33141169979265
1.31802216928321
1.26589750510423
1.19630611544807
1.1088339109336
1.00653210684135
0.874683739438694
0.710950160071762
0.526875162385282
0.356413722233155
0.204261059310001
0.0764481150747345
-0.00402607320584829
-0.0391927752794425
-0.0727084950375669
-0.111900236164681
-0.155685378980438
-0.201907875834773
-0.25232395371467
-0.297373344727577
-0.345852752925955
-0.397309753112165
-0.444703353838265
-0.487820626346107
-0.518842547034815
-0.550621581869735
-0.579269323653389
-0.604683594325925
-0.626775402210592
-0.635300888112295
-0.641611834881739
-0.646808644230509
-0.652243121013042
-0.65559886032922
-0.651223766244905
-0.65187536337794
-0.658492629543893
-0.67102637499645
-0.678640494355221
-0.651858598622086
-0.534666460633875
-0.2680939620162
0.127003367274883
0.543606177749827
0.847617288866388
1.0705338723184
1.19890536346596
1.24281264664343
1.23320380958731
1.18778321424232
1.12873591114459
1.0565847403747
0.966492813234341
0.852692857135319
0.723688908513382
0.564543125613744
0.393169187859178
0.235827545483597
0.112123575734171
0.0312119269411501
-0.0281383489311413
-0.0710223014411468
-0.110714554679417
-0.14918305606931
-0.183994877771128
-0.228349775402383
-0.277762049308147
-0.329580299132791
-0.377290074830894
-0.414614950775329
-0.456901190441855
-0.494762767429625
-0.528008202880549
-0.556722777323747
-0.575046030132011
-0.59400127757779
-0.610233336499376
-0.620598348435023
-0.622164859977725
-0.615474664909905
-0.61519011556865
-0.617372101406966
-0.622006990467246
-0.630323470995973
-0.635953049818283
-0.649248803629327
-0.656265656332224
-0.594063719910131
-0.409546666366826
-0.110121382549512
0.305664908727707
0.709856362615085
1.01205092798345
1.18722983107162
1.24683059579143
1.25209204957259
1.22577471932692
1.17626963603368
1.10762202400875
1.02404491195972
0.919543094078198
0.784719398140478
0.621790510861576
0.44610826956088
0.291188072000883
0.149892008973017
0.0398002886746898
-0.0351755997401613
-0.0863808133237737
-0.122209948013714
-0.161072101304297
-0.20478260614366
-0.252750449569145
-0.30169430725289
-0.34113173187754
-0.379314175833301
-0.421160774657655
-0.464380258388885
-0.499981609461933
-0.524078244334965
-0.551858014713407
-0.578788185427406
-0.601507725455219
-0.617650453260805
-0.620375516711606
-0.623201377330081
-0.625462040506751
-0.626826844335942
-0.62520846847285
-0.621060918610918
-0.623463409425674
-0.6269659285839
-0.635966222530761
-0.639678017738002
-0.607571632488671
-0.45819118247557
-0.138713267843537
0.31049410254399
0.70540210585312
0.997653086401531
1.20497890129907
1.29429043389615
1.31378821548167
1.28377369056726
1.22653852198027
1.1550374541225
1.06707367556447
0.956794177515167
0.827417823961374
0.67016903280582
0.490960372438046
0.292211676908582
0.124616703293224
0.020230087622262
-0.0556608918615738
-0.113121608939065
-0.15776604217574
-0.200829971549801
-0.246915045918371
-0.299761347744961
-0.351665455810915
-0.404178227080334
-0.451509694889978
-0.496063487382264
-0.54180496011214
-0.578186814491936
-0.606635761896773
-0.624900382818316
-0.635292800900997
-0.644864131047491
-0.651461794337839
-0.653783024449257
-0.651485387897116
-0.652781286905733
-0.657580729354412
-0.663562638375027
-0.673029827969983
-0.680685449912028
-0.689561819600503
-0.665639312127329
-0.543552878338733
-0.256075364862199
0.101839799101708
0.476797713315077
0.828776981674365
1.05709287112967
1.18129526876755
1.21702973944073
1.20519499413365
1.1753437833376
1.12514873991914
1.05658827198151
0.967392332409967
0.854088409539071
0.709228629707689
0.542738712461562
0.369547175874925
0.220566066434349
0.10653662492846
0.0150050855903045
-0.0449187577153277
-0.0874345187630128
-0.119529468542627
-0.152086048430757
-0.193008904890433
-0.236901749623248
-0.282197729048854
-0.322637292633176
-0.359629788901559
-0.40295798423525
-0.442062453644819
-0.478032339210077
-0.503164981502546
-0.520870341043294
-0.548095582826881
-0.56242661050005
-0.613520526903114
-0.658796801227973
-0.656768691872347
-0.660291334433932
-0.6556588271845
-0.654912785634169
-0.648999589910295
-0.652369005273555
-0.661921012423401
-0.661059413474613
-0.596606335844305
-0.424541128556484
-0.13948163336328
0.258143065742587
0.63834392694643
0.929091245191344
1.08517934850255
1.15520497698655
1.17929728685678
1.15980167831391
1.11679085057504
1.05403369453913
0.98040810169226
0.883229524921055
0.760197368951597
0.609273852208224
0.45531216930355
0.308360112623188
0.171258115644001
0.0691020551060247
-0.00167961938083399
-0.0453241528408863
-0.0809805261580135
-0.121848715411715
-0.167023794424593
-0.218277310536547
-0.265027351518983
-0.308990590017636
-0.357578777863183
-0.403598192651201
-0.447638908767625
-0.479155939681752
-0.510415509668464
-0.541234848944399
-0.564840664082056
-0.587254638879149
-0.598787211230927
-0.602846300545513
-0.607956619891628
-0.61171639618398
-0.616203785438305
-0.616245036508788
-0.620160636175162
-0.627072382523205
-0.633840951932574
-0.639268621846776
-0.613567592213648
-0.499922732363721
-0.235815886671345
0.144873509738345
0.540533173903384
0.821788080553194
1.012320083168
1.12401979234098
1.15546778963876
1.14246081052176
1.09837014727471
1.03950671608302
0.967134218727498
0.879172063259344
0.765324281136837
0.640242564898888
0.497573940033965
0.345645727024365
0.212434874265894
0.107401521128459
0.0394488542413952
-0.00821121651777442
-0.0504474922638642
-0.0904884867575783
-0.133252974429696
-0.172316474976339
-0.219491509698169
-0.276868726509231
-0.335745919953038
-0.393987242461099
-0.43859473722469
-0.48155788974911
-0.529285462048512
-0.567345471826451
-0.600386998844097
-0.619658923741071
-0.638021616395142
-0.65686406179441
-0.668258007135201
-0.679677515782412
-0.682344312790036
-0.689018967645167
-0.702739634754706
-0.728104626805335
-0.745235072807267
-0.757097395886315
-0.658026684808181
-0.30627449809452
0.0477315206633829
0.439270200101006
0.754531680247623
0.975785788070954
1.12411848637214
1.18280334112173
1.18428564993509
1.14605571106
1.09155894627606
1.02288846174157
0.938849661355895
0.835643580244146
0.717608308790242
0.571267521736841
0.406242044244816
0.247685591756184
0.110236973462899
0.0154377347501309
-0.0522654997428549
-0.103987112215073
-0.141538826377173
-0.174890700187624
-0.205302120497236
-0.245582009993314
-0.290989760617692
-0.334009120384945
-0.375533011460584
-0.404660304034851
-0.434040582180895
-0.466530368561295
-0.495875641810539
-0.523006870040432
-0.538427396042214
-0.553337471526279
-0.564864191398351
-0.570295420358581
-0.573548223120317
-0.569453446261942
-0.567267250201739
-0.567683123192471
-0.570660720089611
-0.576522578945853
-0.578632873319487
-0.581969480074972
-0.536230742317072
-0.372192115920623
-0.0605986431900804
0.278569991016957
0.613457369761306
0.886813089007457
1.04598425243633
1.11461495288507
1.11371229067087
1.08563554958354
1.03604814226823
0.971690789261232
0.892153720041325
0.801031112438943
0.689519808895223
0.550851627876897
0.393974302804469
0.238337477795251
0.116079376066188
0.0172107932675134
-0.0549205656707508
-0.10285142532301
-0.142405812947366
-0.172254251513929
-0.205747327745867
-0.244373701352287
-0.285134647511376
-0.324085281095876
-0.354691307301036
-0.391846367367172
-0.430351436381812
-0.465231259362026
-0.497034863285557
-0.515548896625881
-0.531722375655743
-0.54710461539228
-0.558300591990083
-0.564353611520131
-0.562337932533352
-0.562891736616061
-0.566362351775968
-0.569726624427073
-0.575746350271744
-0.57624174170304
-0.581453419642041
-0.577135805784258
-0.497492688085797
-0.283332059797014
0.0105946961857159
0.374450603554701
0.703214388283397
0.923099572004165
1.02975135010561
1.05559700493837
1.04538313027299
1.01112955819357
0.95596605221967
0.959012545600071
0.926762390242953
0.822867853459212
0.688014767695159
0.522473692306513
0.359161812052998
0.220524540647324
0.0979862876769264
0.00908923822054612
-0.0485370329290842
-0.0856535277739704
-0.113196361470913
-0.145712837083321
-0.186042387759294
-0.231991239088758
-0.275250415491441
-0.313120306863729
-0.359298480052413
-0.404195727919014
-0.445749801591153
-0.486253276365633
-0.513233538381346
-0.541434339192299
-0.566245145349402
-0.588312196424565
-0.603279042158784
-0.608127866511021
-0.617228273986557
-0.624408145122493
-0.632590827856673
-0.638783642532992
-0.64132367605112
-0.652810392935569
-0.66846252879789
-0.63683550363494
-0.496508146907063
-0.230587643071552
0.171052880437656
0.583545241498888
0.903966138484534
1.09799150281543
1.17402583346066
1.19146936404168
1.16807556963744
1.11605932544455
1.04634890163471
0.96462903644639
0.863816244964358
0.741387036710459
0.593793316610255
0.428723105461242
0.280351127202908
0.138716138565007
0.0234876034491521
-0.0565504980413084
-0.103907167450274
-0.128806502604331
-0.155558812159051
-0.18444096076772
-0.218742849589866
-0.256327766181188
-0.286238002141296
-0.324171603107745
-0.366169494423266
-0.407785501743562
-0.442090781739739
-0.467989004294121
-0.497873626279344
-0.526768400384323
-0.553220954806233
-0.57245717399167
-0.577366643529955
-0.580193031528683
-0.58348934236626
-0.58780168606517
-0.590368849137496
-0.589366308545618
-0.597600423585627
-0.611805638680898
-0.62602277952696
-0.623895503072808
-0.563666013332518
-0.367844412318546
-0.0179349419164037
0.411594442543461
0.781940494249159
1.01533651383815
1.16540983768655
1.22200539495848
1.21341279021529
1.16605134736886
1.10090892562839
1.02098884679136
0.925412202603333
0.812319418903258
0.682586380679053
0.54016567574178
0.375696161632224
0.215911417985816
0.0818731847829101
-0.00981452588029166
-0.0648420172478658
-0.112707570349404
-0.158688963598217
-0.194438698889775
-0.232130458294597
-0.265031062317016
-0.303317477504568
-0.343774679032597
-0.386418571346878
-0.420187389471892
-0.450168565723879
-0.490620784426584
-0.52153658838365
-0.552911662213471
-0.575396710534753
-0.587824718874681
-0.604124774108215
-0.611362761456718
-0.614892450481975
-0.614452345883308
-0.61097604578771
-0.614418171411357
-0.621360551556457
-0.631069455715319
-0.639562175491325
-0.646533811601481
-0.626688138789481
-0.499735663378437
-0.187305307081699
0.220402787912162
0.61823478396533
0.981132484336216
1.20659331267237
1.30867965863995
1.31567745995463
1.27273808869573
1.20883083904806
1.12801690447955
1.02880262488152
0.915678374002826
0.78640804785754
0.62222910877122
0.43941365429246
0.258394009095541
0.113067662580633
0.015809189852029
-0.055822804082766
-0.104044344304754
-0.138917195794667
-0.166136029299791
-0.194025920434915
-0.233122942702026
-0.278857475656321
-0.33011042864728
-0.377071227394364
-0.417187308131627
-0.463243174277588
-0.50637392425375
-0.546043126105634
-0.576124532362592
-0.5998734304744
-0.629175240527737
-0.654177720090686
-0.669381352522145
-0.675792152624127
-0.675366949386732
-0.682052833956802
-0.689021960344588
-0.698090558798999
-0.700302935754284
-0.705538751838399
-0.716178189781909
-0.68490644134854
-0.516094313943884
-0.191812209723594
0.201453324350409
0.645801651696991
1.00148339181865
1.22323763151307
1.31674293382561
1.32189807076827
1.29095768352869
1.23176743283439
1.15669765506267
1.06472487468324
0.962476761968586
0.812787684701831
0.64484828718646
0.476365493697403
0.303867042614408
0.161817234222135
0.0380170569743206
-0.0449114109783098
-0.0952716026167632
-0.118187077932338
-0.145053028486202
-0.173978348402766
-0.209279785991299
-0.246232356026208
-0.283874509410303
-0.321322716796139
-0.370490836007693
-0.4109158554447
-0.472776464933754
-0.540864459282925
-0.571920927118835
-0.606035909372319
-0.628094408964781
-0.647844525010344
-0.651250238133478
-0.654596791114742
-0.658723261660534
-0.661120892415889
-0.659622699038859
-0.651421280571455
-0.651477777749809
-0.659716709578038
-0.674811418637349
-0.686858919767932
-0.657619064663054
-0.513182714522624
-0.198074400438136
0.248651995848782
0.699007035647057
1.01456523975227
1.23365057220457
1.34306096041534
1.35739616046689
1.31658726260138
1.24398249609546
1.1586933209447
1.06022438803391
0.942252373526167
0.797657321040979
0.644359032158964
0.465924601325109
0.284177740728321
0.12789088570101
0.0105483794744485
-0.0606173452526886
-0.1072328346074
-0.141332282639109
-0.173440247888779
-0.208503063125742
-0.240338954758411
-0.27977071679574
-0.321464932124708
-0.365403660345803
-0.40892700031431
-0.442754196016223
-0.479842256601801
-0.520328177063759
-0.554558349527467
-0.58199266609696
-0.594533314492623
-0.610208801715102
-0.625422028629726
-0.634808884330412
-0.638242718537978
-0.635230751631858
-0.635209031848598
-0.640501091418183
-0.646555349058417
-0.651301903755336
-0.655025811222264
-0.663357134593768
-0.642161818969882
-0.493194478920492
-0.181849157192577
0.212102060849174
0.66548868201158
1.03406915111811
1.25807246848207
1.35056692427608
1.34731479623222
1.30222093201874
1.2314403984652
1.14306294410311
1.04293354026891
0.930164682834113
0.788585468796129
0.619559416387042
0.437437759342914
0.264213669910545
0.129739329600448
0.0198929431376838
-0.0555361353121949
-0.100363595037971
-0.13062288281762
-0.156363249484455
-0.188481824566584
-0.22716535171162
-0.271019353264316
-0.319885198492291
-0.361963152703285
-0.407440660646811
-0.455310752344697
-0.500619629642728
-0.539071380691676
-0.564506992795827
-0.594543573631013
-0.622216983365554
-0.647119626784545
-0.664585760373467
-0.666184251757862
-0.665734015669826
-0.643624063643752
-0.638047561605046
-0.643113057526232
-0.643116067127858
-0.651803954575749
-0.663191592888772
-0.659376473403085
-0.578959693791309
-0.385915175633786
-0.0308692268570235
0.412932599425307
0.820417161897859
1.09843998743985
1.23110234804508
1.28997531535767
1.28287527718847
1.23705168378958
1.16744957793924
1.08257058102661
0.983103194631282
0.864851691876791
0.717369143492897
0.554951481757802
0.400293614248616
0.242237178543604
0.106621571796352
0.00710439034901634
-0.05746258385071
-0.0956771879284116
-0.129802199259014
-0.161992999415999
-0.196761000192613
-0.236053320619997
-0.271345563858403
-0.31323299295723
-0.359100551100222
-0.404022362473715
-0.443881860893129
-0.474098847422802
-0.508808400402119
-0.542862970884588
-0.57235619526891
-0.595557410048541
-0.608432030235497
-0.62327369603675
-0.631621892137046
-0.638088107910343
-0.642867645122433
-0.639663481976706
-0.642440694475402
-0.647286700743713
-0.655899679769114
-0.666423631464857
-0.665200336056949
-0.603041864573855
-0.402675094921826
-0.0282368330668569
0.394862027695211
0.765258371996205
1.0784210103107
1.25512384132188
1.32084486291888
1.30853435578157
1.2568079298665
1.18418928902952
1.09688932834812
0.993787087242582
0.874005456599455
0.735330018702653
0.566641306711335
0.388122797289558
0.21973442809609
0.0858393441502474
-0.00338822433344491
-0.0697193010073715
-0.113849925984986
-0.149956133359673
-0.18331673207538
-0.215968344402225
-0.256470488396977
-0.298783435084112
-0.341418460224491
-0.383187759072923
-0.417908086198743
-0.460617854865557
-0.50094693388975
-0.536734094805122
-0.562941534627366
-0.580341706850782
-0.602333542272532
-0.616835885326036
-0.624400642057242
-0.624966695878124
-0.619567551794094
-0.621152599670293
-0.624756603027657
-0.629606622199104
-0.630289539879708
-0.633830945644056
-0.642192626739584
-0.633327461891106
-0.522970195313118
-0.280334337451206
0.0595811949632545
0.503592877695687
0.889732113744437
1.14819195275941
1.26385460409626
1.2819978228455
1.25802108738411
1.20213232324403
1.12908958955847
1.04327483956922
0.945957850306352
0.819336569299717
0.663843907434438
0.48520138996594
0.319218950094664
0.181718590538413
0.0618092064696983
-0.0212533881578392
-0.0756940060571471
-0.10921754666371
-0.134367243335497
-0.165764334542801
-0.205023613974227
-0.252184190452277
-0.296503377349093
-0.33626726522447
-0.383065252088643
-0.428488613747855
-0.473389931846305
-0.511073087256279
-0.538396984203805
-0.568950055415372
-0.595825309819578
-0.620473292656867
-0.634695679352434
-0.639365016012933
-0.646778203479815
-0.652992345352923
-0.660696067745983
-0.665148821661062
-0.666558546362327
-0.677850132709933
-0.695838304156612
-0.697225800535618
-0.630296747353226
-0.439602376513515
-0.0743351123170187
0.374131316359565
0.790583309210966
1.06285413205429
1.21441435615827
1.29240000009063
1.29463739442297
1.25607167810423
1.18934125278523
1.10958969569755
1.0151022238518
0.899926869979901
0.752883059828712
0.595041479938914
0.428313836776554
0.254328833781709
0.107986176812482
-0.000837685235906651
-0.0680825095409369
-0.110321599039589
-0.148841382898656
-0.184041104488083
-0.223522486283179
-0.260651374779026
-0.299245226570565
-0.342277259964656
-0.384864995197834
-0.432982866615136
-0.472317068480274
-0.502239458121378
-0.537150717415663
-0.569585814817716
-0.600808180064194
-0.618889425215663
-0.628261014152505
-0.636198667890572
-0.639500745091689
-0.643327871869223
-0.642862750475904
-0.639586016671522
-0.645616736233434
-0.654477028878871
-0.669900041033668
-0.679045513766896
-0.659204469936767
-0.534357854402486
-0.243768352285152
0.194892037496058
0.62267107838426
0.948279992842434
1.19819267571451
1.32184807328863
1.35985588750864
1.32884859244417
1.27415977173122
1.18887515597622
1.05569540340044
0.93643159167757
0.805453200181501
0.656079465964322
0.477502439459475
0.295928587892382
0.135187328596815
0.0201877473697253
-0.0597463802310871
-0.119179805025369
-0.160680513236487
-0.198363185550608
-0.232732438640357
-0.268145027442884
-0.312761533476044
-0.359049728691779
-0.408765423438849
-0.450189534626766
-0.486991486606817
-0.525243288483357
-0.559874303155635
-0.592907945577325
-0.615245129607078
-0.629900059181256
-0.642061185523038
-0.646902521692072
-0.650331119341347
-0.648971301022626
-0.649172418861182
-0.655077441376262
-0.662203001122759
-0.670248739326737
-0.67312009243373
-0.676396065269627
-0.621922625117108
-0.432014226518382
-0.0698074052238718
0.327079187875078
0.69529112114098
1.0102636653635
1.19359325357274
1.2752594519828
1.27409648318428
1.23961145280279
1.18377833377624
1.10863160616212
1.01065837849944
0.89341339377763
0.752846265582321
0.582830320800829
0.406382525000648
0.24552932938299
0.126404831217123
0.0347755806240616
-0.0320137472996601
-0.074768294772527
-0.110298732112541
-0.14297446933865
-0.180288645445293
-0.228400766881791
-0.279306442827047
-0.332507901193599
-0.37476429020803
-0.417705942174377
-0.466928395742101
-0.510936564729103
-0.551055395489536
-0.579530169141477
-0.604824179810446
-0.629877210629255
-0.647300321363909
-0.658749535481114
-0.661619568021312
-0.665191487407
-0.673123614962852
-0.682713184561783
-0.696980549968444
-0.70687080347165
-0.719613169443893
-0.718994694779043
-0.641482549007202
-0.40679140517463
-0.0747787013062572
0.338450946993678
0.745646622827183
1.0355138926
1.20739798342528
1.26639876392657
1.26728718513556
1.23890239406894
1.18140278432008
1.10400859020776
1.01374955766821
0.902009484922741
0.759482801659889
0.594913558409765
0.413750430490232
0.256209496836373
0.127527519621642
0.0215445887891673
-0.0483068607091674
-0.0953334952978818
-0.130990799220414
-0.165325038391876
-0.204672591900924
-0.247860208828104
-0.295206659174423
-0.334571315730613
-0.371137452436125
-0.413134410304565
-0.454132870384819
-0.493442888812685
-0.520115749021416
-0.546917862019343
-0.575603054855241
-0.594631260060036
-0.606945062780888
-0.613108697148881
-0.614059943166697
-0.617580116138332
-0.621023985810628
-0.626498304200147
-0.628511151901346
-0.635046308983224
-0.650336263977113
-0.668999342351949
-0.656884472900402
-0.564407565876677
-0.320884243953282
0.0695572109989234
0.506019513857219
0.878660150071487
1.09860494396485
1.22041403080567
1.27467875113934
1.27017779621539
1.23158477982866
1.16694618006421
1.08589568612334
0.981167153902627
0.85109340982398
0.690685146687106
0.527300447386198
0.354873665579205
0.188499874464271
0.0575513779442043
-0.0334600421019349
-0.0885213336011161
-0.129275654431891
-0.164551511055165
-0.201645504628513
-0.244717793426176
-0.284121611616587
-0.326230779635383
-0.371877057501021
-0.417544406362233
-0.460773613527209
-0.492165605280448
-0.526394650636897
-0.559313315947352
-0.587191193490235
-0.609163698644232
-0.618827783012378
-0.623675880725883
-0.627124977575294
-0.627374632626852
-0.626726632142603
-0.624412952009804
-0.627372919824547
-0.632879043150253
-0.640642333686193
-0.655119655769141
-0.654077757091765
-0.590986526889407
-0.388430429357074
-0.0239972745942299
0.4109925512292
0.75742648571583
1.03214104454811
1.20245492450016
1.269456667718
1.27068906251566
1.22729391997333
1.16418343036968
1.08940438197145
0.998671749540183
0.883368359990977
0.748053047260659
0.583849201078276
0.406287401279046
0.241495533023449
0.105690091641611
0.0143820516033669
-0.04890363256766
-0.0942345693993247
-0.131712780134892
-0.170737249033622
-0.206520442253653
-0.249933469289702
-0.301584017903309
-0.352876412710143
-0.407002868969003
-0.449123542034028
-0.491524527614781
-0.524921249230529
-0.547387823805943
-0.579517915668221
-0.599166619585125
-0.617744926139207
-0.630297470664916
-0.641604174185797
-0.649843158789198
-0.652143103590748
-0.65907513486232
-0.665355907953775
-0.673100247509722
-0.682809029997185
-0.691472943425587
-0.693091387770634
-0.633332988216643
-0.424521741489958
-0.0789116625030827
0.299037509115085
0.697008217678865
1.00006508482302
1.18172180257139
1.26034342742988
1.26115853271749
1.23200009357688
1.17826414327249
1.10465191867987
1.01647942245981
0.911250669840029
0.776141595435546
0.614758186075404
0.439563685389065
0.27208711375215
0.143333650965747
0.040665011539429
-0.0304361043557309
-0.0774663773799699
-0.112347273215075
-0.14236045210448
-0.181296023318535
-0.223775941326001
-0.269189675881918
-0.315878766956905
-0.355112130290298
-0.399928071024284
-0.443786479525461
-0.487377721000221
-0.5254399663391
-0.551156733243947
-0.578990298374147
-0.601433198535398
-0.618638302154872
-0.632246667452237
-0.631343895260684
-0.630158132542081
-0.634823169002273
-0.641774529623384
-0.646108234025337
-0.645633758110527
-0.653676938565768
-0.669361353236953
-0.669897582393699
-0.588895107400584
-0.393655819025903
-0.0399128243507497
0.396716530313518
0.797771536599655
1.07214786798465
1.20387855670756
1.26512079655687
1.26630303986028
1.23149474743399
1.17151026997553
1.09457651462105
0.999405937650321
0.881376396140267
0.731581014119472
0.563547740871638
0.399369230677669
0.232735313111528
0.0952340044213051
-0.00164403718947188
-0.0615182455436952
-0.0968990906908008
-0.128485848197174
-0.164552014996541
-0.206117881058764
-0.247180686252201
-0.285479370669185
-0.331719119713893
-0.379425681670883
-0.424317456517633
-0.465326562891253
-0.49396351084332
-0.524184622919938
-0.555044748207342
-0.582245097030768
-0.600759195633852
-0.607729986538897
-0.614528644338726
-0.619249106301286
-0.621701545033273
-0.618951737327026
-0.59653172274674
-0.591083588197538
-0.594575808840023
-0.605264498568479
-0.617367476359367
-0.618095273390994
-0.561265712929094
-0.369398351759819
-0.00814868164921311
0.40072660300005
0.751971708634949
1.04325932667538
1.20311813943813
1.26444388247911
1.25730105797065
1.21267497850528
1.1512160491232
1.07463080293627
0.977067434140909
0.860770277277874
0.724060815752028
0.555815105661675
0.377946963581743
0.215916138921912
0.0904249697068024
0.00793212027679186
-0.0511247418117302
-0.0933823533903742
-0.13035708801438
-0.162879594429867
-0.196751075132217
-0.242524527632666
-0.293427843015803
-0.344526154517556
-0.389886799125133
-0.425268656392228
-0.466247540257344
-0.505556870891871
-0.541650584965311
-0.567010189220109
-0.585430880552346
-0.606709527283122
-0.620738182266233
-0.631655943700652
-0.635614008823551
-0.63085916284782
-0.632919191355578
-0.636048666550059
-0.642341810534154
-0.646183697346346
-0.652003081026447
-0.661551024492388
-0.63183986370292
-0.477420294926683
-0.181187491592666
0.182569049312276
0.593783296940814
0.924881916286744
1.13055763554161
1.21457498743378
1.2234701056901
1.2025077342723
1.15736748911467
1.09302580101236
1.01032050978034
0.91305975064686
0.787786096829643
0.638906621000323
0.467754153059585
0.308649772100437
0.176271241502889
0.0603291692942819
-0.0184832728565559
-0.0680507090236152
-0.102114375600688
-0.128075193452868
-0.161573600286797
-0.200039731050454
-0.243357997998659
-0.282271608640587
-0.317986872549542
-0.364273210725721
-0.408206326571403
-0.448780681998282
-0.482012200255312
-0.505380476470268
-0.533333549348284
-0.557703266783442
-0.578531554360707
-0.590204753084107
-0.591074549183967
-0.594905380001771
-0.594211723816199
-0.597206360630062
-0.596533830203022
-0.595865700970254
-0.603396008959403
-0.616222112549431
-0.633675331353465
-0.632075208005566
-0.559100280220311
-0.345578080687174
0.0331340443065178
0.479440921810174
0.818184281452146
1.04802454045665
1.19379533898011
1.24092034469059
1.22833602717514
1.17852811764458
1.11284247772398
1.03565509585867
0.946020204492451
0.829275820527011
0.693080019537611
0.537444722128435
0.363007691239797
0.204186068708138
0.0754593539940856
-0.0118829394387207
-0.065470480681333
-0.106565239855782
-0.139537825329553
-0.175975126361993
-0.20948698737062
-0.245076779328136
-0.288581364085245
-0.332227872964565
-0.377117908240248
-0.413778408856429
-0.44500185689742
-0.480955949252901
-0.512126288611617
-0.540871560024212
-0.556992040814874
-0.568015991815912
-0.581324385897177
-0.588765144602108
-0.590635581918331
-0.586225266541722
-0.578074548930219
-0.577557832160039
-0.579435374058993
-0.584442164710352
-0.58729613535311
-0.595928953725447
-0.600254497242365
-0.54631377620737
-0.34796371937196
-0.0289846270134009
0.340009205787483
0.728041930288099
1.00505895707937
1.15930215938278
1.20659305472824
1.19539645153298
1.15720719080774
1.09853229718114
1.02665488013844
0.941875996759382
0.842318977392062
0.711486447728638
0.554233742203021
0.385575365989107
0.240681342015587
0.122460795588675
0.028214408602911
-0.0320155402072488
-0.0732310685398151
-0.101670546556423
-0.129611208430228
-0.167328283151021
-0.21237574206253
-0.263011480414923
-0.307335742005414
-0.351123143738871
-0.397854874897098
-0.441239209457803
-0.48216125946633
-0.509572330632094
-0.535015443160341
-0.56120698891525
-0.58444941338476
-0.604992126096464
-0.613460592620036
-0.616856243403937
-0.623289624305726
-0.628053088110551
-0.632298152340437
-0.631067240253025
-0.634894946973394
-0.644965145289808
-0.659283907980729
-0.652057641322502
-0.575013803347552
-0.369383326555004
-0.00917014277924515
0.41027385622675
0.782859593195712
1.0146032097985
1.14946432020596
1.20953062303749
1.20864946245647
1.16736660042965
1.11583688050785
1.07710673479482
0.992698798162806
0.881609111523612
0.739831286776469
0.589776027114307
0.420942855685826
0.250912589855391
0.11200643441406
0.0121001960526461
-0.0452421116929348
-0.08177343861949
-0.11695539943122
-0.154345746467386
-0.197003956458316
-0.234932028999903
-0.278107224146179
-0.324845575813166
-0.367587606246
-0.410136400976348
-0.442070314860289
-0.469622825128185
-0.499456648165255
-0.523645150684996
-0.543864296353792
-0.552499347412607
-0.556781074598631
-0.561464017509018
-0.563882126232898
-0.566543899226018
-0.565764355090522
-0.564784921727618
-0.569856976440852
-0.574139207266271
-0.582613667979378
-0.58616049447752
-0.601179605160068
-0.610404955547913
-0.555218454318125
-0.343860943168202
-0.0203665035143387
0.375815177494542
0.788378224318409
1.08403022074629
1.24822259635689
1.29062414752619
1.27969532303777
1.24020280769666
1.17621762766304
1.09577814192499
1.00164066740442
0.886708837119025
0.740344363483429
0.570222844886216
0.385767143118546
0.225722637143003
0.0869653518508182
-0.0197105414399442
-0.0861107383463602
-0.134568827760687
-0.171469394878646
-0.204495940264358
-0.244070130295785
-0.2885294149853
-0.338321862249968
-0.379569256015518
-0.420052205287042
-0.463443616695769
-0.503561730810055
-0.541826286569878
-0.566059057093938
-0.59069114783418
-0.613825467330987
-0.629839840702755
-0.638187499378963
-0.632978449960622
-0.628151994248275
-0.629231727079432
-0.631209874472383
-0.633672272437966
-0.630036729627338
-0.634239896656797
-0.644460581502903
-0.656004847176766
-0.621984187922946
-0.493564946196962
-0.203948040160233
0.221566849619646
0.656407729633482
0.991797784556564
1.1687321683495
1.25812478157457
1.28088956814109
1.25771153906885
1.20573552908277
1.13232603061914
1.04758311976836
0.944093483973292
0.810222776468517
0.648944551972408
0.49155378690911
0.328566732026312
0.185594694054776
0.0548809348756063
-0.0324880714052152
-0.0746957000042604
-0.107991312400119
-0.142015128353596
-0.180646214740187
-0.220610514734002
-0.257058541720279
-0.305238065040079
-0.358354440526683
-0.407345523014772
-0.451851850133374
-0.483351317653667
-0.515740300105065
-0.553414386323079
-0.585785971141831
-0.610088141458679
-0.620231169948541
-0.633583564546546
-0.645325711310198
-0.6506882141018
-0.656123317416013
-0.65390585629865
-0.656401075193325
-0.667079903059474
-0.681982193446789
-0.700622522062181
-0.701580150636351
-0.652492378068626
-0.465241763517376
-0.110198708445471
0.339671106527602
0.71163649212071
1.00021502299068
1.19360510012262
1.27575851961853
1.28765530359469
1.24876033945726
1.19474915203511
1.12262516069598
1.03206497659302
0.918695986426869
0.78784767635312
0.631366882628182
0.452481484579952
0.277692010248887
0.130978831674074
0.0338921331964789
-0.0355224311828667
-0.0849536656682801
-0.119089123218273
-0.148884452552102
-0.178062206011636
-0.218058209793441
-0.263078706712081
-0.309032960114273
-0.355196865202001
-0.389336296772464
-0.427043508975211
-0.466625618449383
-0.504058981692724
-0.534286681827646
-0.551592375741915
-0.572566968421388
-0.592617387541884
-0.605419886583268
-0.610669929966265
-0.605373659422381
-0.603385285277062
-0.605122873775262
-0.610170475348655
-0.614041289336932
-0.616387027641698
-0.632795106666243
-0.653014831961147
-0.649939486564771
-0.552449597467708
-0.334555882211093
0.0455409295675267
0.499959887726117
0.896054320080248
1.15356172274393
1.26862635890896
1.3137414007607
1.29584222917471
1.24569046576784
1.1731898807451
1.08655268583594
0.984195917716037
0.858130039390835
0.700460080140546
0.526142111648878
0.3593361996344
0.194321434778354
0.0586206912703632
-0.0396238010183754
-0.101718140735899
-0.140434989607282
-0.176440246535904
-0.218521107860133
-0.263401971740495
-0.313216923137593
-0.338180061443515
-0.354838865505876
-0.399898240382705
-0.444299032547301
-0.486601620911509
-0.515582268510765
-0.544284336015856
-0.572018982291192
-0.597063207206724
-0.610686166612776
-0.613803247824428
-0.615957822199142
-0.61544046441626
-0.615141113335959
-0.613598418675366
-0.609753137080283
-0.613369949107401
-0.621381496044044
-0.635669742022547
-0.643807203202939
-0.611247449330314
-0.474768961931461
-0.172625094384196
0.247707663685902
0.663655278520031
0.948640271844656
1.14386046529034
1.24205501701241
1.25984652511851
1.22848368180552
1.1694410552404
1.09799620028121
1.01112686719006
0.905302979809443
0.771464686856309
0.623543099698723
0.45421413791384
0.286294893727431
0.146355066756263
0.0466855957024716
-0.0133603062247136
-0.0586825849785369
-0.0931621509929155
-0.130526795630138
-0.170089572740922
-0.210858458846444
-0.259685692648421
-0.307723758786532
-0.359117746901961
-0.407011342942336
-0.442817734784382
-0.48038473394221
-0.514843082196003
-0.548382856172132
-0.573542194633964
-0.587466222082736
-0.604492643471117
-0.619208832735876
-0.632687227489341
-0.63574945481942
-0.632191620219127
-0.636706677524303
-0.640534874838523
-0.649319027770519
-0.65705032923033
-0.6659441168569
-0.670099554909358
-0.615529746184677
-0.417391684251243
-0.0809098215892792
0.295756499693137
0.69976704413122
1.00692724916948
1.1867530597566
1.25501804840643
1.25394990985875
1.2239332215467
1.1681386963131
1.09637611862644
1.00890609224829
0.906995515662055
0.775359473333929
0.615057234241781
0.434427331190268
0.270202405738828
0.138762599840629
0.0325282688116934
-0.0373032221979463
-0.0840087240485268
-0.117623782826783
-0.14497374490472
-0.181186413130582
-0.224692381781961
-0.271987875322986
-0.314886855445854
-0.349753775960229
-0.389094764035263
-0.427002621008746
-0.467133257929277
-0.498280247839286
-0.517000220713932
-0.537633649906938
-0.559170756945833
-0.618957514084642
-0.645966446725668
-0.647256548840563
-0.651203207944552
-0.649160257726702
-0.647748538317443
-0.645579733471846
-0.644812676200734
-0.650727473553992
-0.664465174069579
-0.678484506121424
-0.655972409505988
-0.538041722318198
-0.250058400824586
0.178594139799277
0.636021548651162
0.990387241816975
1.18962084403986
1.30336156206986
1.33484689880162
1.31640215377302
1.26024721467375
1.1827673620053
1.09556308223122
0.992924548048189
0.862216649941658
0.70506934806354
0.536418946410254
0.348810872224004
0.183769962203171
0.0585194961459055
-0.0246002861986462
-0.0789752267989116
-0.121858345125235
-0.160138085680239
-0.205537144066727
-0.249995424059813
-0.29630976128136
-0.348352092421627
-0.400140136581067
-0.452745072134377
-0.499050906152805
-0.538300768376838
-0.579464516664681
-0.614748428527962
-0.647075404638172
-0.666026125552456
-0.678109429645299
-0.686122696849251
-0.688450597021572
-0.688789282510481
-0.685786058687812
-0.67889609181625
-0.676905634987052
-0.676814182092983
-0.684085651489915
-0.68600410446962
-0.670265927175542
-0.57323934028463
-0.326039695462723
0.079121496354362
0.500288757439976
0.836605690592133
1.10515145540745
1.24996070661156
1.30569311743891
1.29192620977661
1.24536173593161
1.1811417871603
1.10121858796919
0.999140131144925
0.877759944797897
0.735807105500029
0.562845277987412
0.386813358385758
0.232510252697608
0.124934955735875
0.0543865119333878
0.00139123871238912
-0.0372853811167057
-0.0742288654653107
-0.10994735912397
-0.151320766765442
-0.205929335273977
-0.262058252579165
-0.317551133795841
-0.363835019124415
-0.410130116400317
-0.460610631617045
-0.50473002510602
-0.547777179374373
-0.581147557931325
-0.60386190534835
-0.62909415637205
-0.649304042061219
-0.666057150243124
-0.672497166310824
-0.676265065097487
-0.685446220478178
-0.694644618379557
-0.706085146735495
-0.712375944149233
-0.722138478805291
-0.73704535462284
-0.726236750094273
-0.603219297513739
-0.357279823020961
0.0143657101110817
0.467582438285494
0.847258118809439
1.10256239063556
1.22381764275334
1.26040362573014
1.25927034353564
1.22339891061395
1.16729144914361
1.09338337752071
1.0047893277924
0.890101729628683
0.744400309353515
0.57166589804523
0.411701500409741
0.266220080193157
0.140959077428626
0.0534496663212217
-0.00431369796755704
-0.0423911788837319
-0.0779151245412116
-0.1186881238466
-0.163833683242487
-0.211669461305834
-0.253687799570424
-0.29925250831343
-0.349456286211105
-0.398407882252843
-0.448544670434051
-0.486547968900976
-0.5197329228526
-0.55351868963712
-0.58146660936393
-0.605229496726855
-0.618849460546368
-0.630648759799232
-0.643936674167614
-0.654791217951338
-0.664555368222316
-0.670534575985206
-0.678532833219947
-0.693616809238322
-0.709989043073403
-0.72558309501103
-0.710852467309998
-0.603068231628629
-0.327995241752607
0.0883099087377478
0.543795670515254
0.875346572017139
1.08333041221715
1.20933957753742
1.24572940754319
1.23505673360033
1.18424809145215
1.1219509392056
1.04984732428734
0.957729111617404
0.828634815779552
0.67357132721965
0.499541422319871
0.316227208583717
0.159810810350781
0.0408458486130954
-0.0358166500981058
-0.0866209000220613
-0.123613398686389
-0.154549466049211
-0.187757496645568
-0.222754392975698
-0.261575815689418
-0.301711243822787
-0.338314922737255
-0.373117466788665
-0.402522461561443
-0.433383905854494
-0.46479558454858
-0.492068849892167
-0.513684992870797
-0.528472948592523
-0.53807768229976
-0.544861821357102
-0.551252069871877
-0.556348559943207
-0.559868683799727
-0.5642914228909
-0.574696875274063
-0.588340943377262
-0.603751775913313
-0.606251943982926
-0.553345318684459
-0.373755208245188
-0.0489778069757609
0.352267091898163
0.686364814640073
0.941387307364431
1.13811198025139
1.16040216831578
0.957541409761465
0.875375721289365
0.817630344175857
0.76140916476487
0.690021715618004
0.598260144507124
0.485799152390044
0.352656208718872
0.208438881909817
0.0751235853451203
-0.0316061195160154
-0.101631615278806
-0.143849301986972
-0.165827830357055
-0.178463539688998
-0.190308494287559
-0.202280129225373
-0.210865190534404
-0.219386836584868
-0.228519254594569
-0.242532744316315
-0.25722343434848
-0.274812658081711
-0.290627052173562
-0.303822086763574
-0.314890293592193
-0.320771000423811
-0.324893014348089
-0.329039438166555
-0.333132512048199
-0.339519097772836
-0.34491352750687
-0.356946480321612
-0.372456841892342
-0.38848570716416
-0.406335502085277
-0.412813124375719
-0.373961997607059
-0.231708635434013
0.0296697086357916
0.344227015123254
0.595167996557418
0.789827334110886
0.897307959303989
0.919505181095067
0.887258548994856
0.824797237574912
0.743053976274381
0.648875530292334
0.542107205966616
0.418353582808074
0.28473494120908
0.114666053254004
-0.0718377667550251
-0.239235851368595
-0.367555448901382
-0.434197191509321
-0.470017874560862
-0.49718510547571
-0.516726705644613
-0.53642697683496
-0.544383650365943
-0.567008164747701
-0.602067610575208
-0.635489049559736
-0.650320748173862
-0.603383576769968
-0.4715083465167
-0.237291847530221
0.0554404425489295
0.323155227062305
0.506661033992691
0.611730697262527
0.644655246366288
0.630866453488387
0.592198684215457
0.553696128196804
0.486125399764986
0.379925576260117
0.252042856111312
0.121951856261386
0.0361921960272935
-0.0368067510888861
-0.0806393321254639
-0.091859115412629
-0.0877105851379495
-0.0616888678973487
-0.039439458073702
-0.0307901439860247
-0.0314823990293037
-0.044052495768773
-0.0527946561370937
-0.0822373766342786
-0.12435105947848
-0.167974041381755
-0.218969230350272
-0.251147266075696
-0.299740727870096
-0.33819154893242
-0.392866889903297
-0.420637217356275
-0.480742388858904
0.054784493089788
0.409595171602624
0.376740441801812
0.361665859339602
0.303383525085034
0.257456402048455
0.194612682668734
0.14071758920085
0.0806182336534589
0.0316287210509566
-0.0234546612208906
-0.0793895961842196
-0.135479381700611
-0.187864039660684
-0.232265186672183
-0.282205093503064
-0.333691363167965
-0.39042824854569
-0.434810261531479
-0.430216059212078
-0.326430843461404
-0.112518319695896
0.151984395398334
0.372397352575617
0.501196712920532
0.572978308845209
0.586546621040501
0.563545339602004
0.51879926771729
0.466817051937468
0.404528557213237
0.330817757475406
0.246207281648933
0.1561448549202
0.0710620949305194
-0.0222407736280546
-0.10101248599869
-0.155737780152028
-0.185656350944291
-0.192299421812014
-0.193175637144364
-0.192670652947987
-0.192426703321934
-0.191766002427544
-0.187757579160684
-0.190007194878138
-0.194226167197751
-0.200915627658408
-0.206974045529837
-0.205842496022589
-0.209003276793423
-0.212864883292932
-0.215706997745299
-0.213748341754868
-0.206337610832852
-0.205448780241938
-0.206685010549192
-0.209804993861587
-0.214291116820126
-0.214525075162226
-0.221212057678096
-0.234196404622337
-0.237638960990413
-0.199573816040805
-0.0929835440196964
0.101243202590965
0.329453972260856
0.521363800289176
0.63821783614586
0.678469404392831
0.673714350076452
0.640913605599249
0.590534371965233
0.534875370108986
0.477496491253699
0.413689542014183
0.340905693269733
0.254126594821331
0.157147827523135
0.0681243283738672
-0.0182580489068966
-0.0906951204125874
-0.140564182826844
-0.171436876395224
-0.185442859516009
-0.195373869216208
-0.206313066331346
-0.222695224583103
-0.238892464540708
-0.255112412049671
-0.278857584575285
-0.302351227131116
-0.326744857915272
-0.346251172269651
-0.356217446264598
-0.370200073003142
-0.381866080991047
-0.396030965396593
-0.401990962328519
-0.406607378225328
-0.410212249494102
-0.426778069572496
-0.404487158982443
-0.346654599890857
-0.338201823383389
-0.292887420710445
-0.155190735953042
0.101811237933506
0.377121252818805
0.599614822671324
0.763572448027277
0.832832643588065
0.834353660344462
0.795259130169001
0.74077364011315
0.674819337559159
0.60538880799733
0.526824640392277
0.443634628313548
0.350787817419557
0.235960596669291
0.114387155896629
0.00121957458242729
-0.086279745524694
-0.142023485432774
-0.181148873482859
-0.203336606621049
-0.219768125668701
-0.231982020622355
-0.243381695450123
-0.261389662551209
-0.281269091049792
-0.303476741135076
-0.324119296509277
-0.339626389951377
-0.357254456058215
-0.373494771762444
-0.386586572210236
-0.391954724204239
-0.390364591858521
-0.392816749491516
-0.394161922259405
-0.39719088399371
-0.400145530943763
-0.398293588379576
-0.400659345858472
-0.397577883843231
-0.334128797814986
-0.180785789506388
0.0570995744884262
0.358833404486495
0.612918508214541
0.766956260204828
0.820041929286956
0.810238474926192
0.771338506235561
0.718100139514884
0.658378546141623
0.597252811483848
0.533005376274532
0.450973837188595
0.351044682571595
0.233989674982638
0.119248393701819
0.0269096766980559
-0.0541679531458673
-0.108237186967795
-0.13877842061063
-0.154921660697074
-0.167827468675012
-0.186474374164852
-0.207946517841789
-0.235717852829183
-0.265266336681991
-0.292771080299656
-0.323653304286655
-0.353796163771935
-0.381600514570259
-0.403476940230883
-0.415286919809694
-0.429443990822035
-0.440787517056817
-0.450570004837897
-0.452614346861877
-0.453018817300933
-0.459021688887462
-0.464086706058734
-0.469118901685002
-0.454676082053643
-0.379741949324397
-0.193328014291545
0.0933969199432259
0.403281498652834
0.629458660354708
0.762726123972653
0.827026104378611
0.830595691042838
0.805249987783499
0.769235529012763
0.732652982816667
0.687396997600456
0.635853686341909
0.568584363837215
0.497594535610107
0.400357266116222
0.112078398866715
-0.0630056391450566
-0.130067563317185
-0.159756172897688
-0.157655039959819
-0.153203597779115
-0.14690175110726
-0.150474556479068
-0.159518929632102
-0.18044124729023
-0.219889782955771
-0.265447284165194
-0.309545303907247
-0.347319732815828
-0.377083859733764
-0.405741745263725
-0.42845227821277
-0.452015151747035
-0.474769418690233
-0.4967218763184
-0.512199787077307
-0.521706729306375
-0.535974626211751
-0.556560063376771
-0.587231651814344
-0.617322779817171
-0.611821017393828
-0.473470785881899
-0.217792638153355
0.137488931707037
0.536378494844479
0.82920912994643
0.99560956280233
1.03507831958544
1.00111665245185
0.952891063027648
0.891989552008557
0.827568371857801
0.745787421563253
0.651735041089034
0.538185194822192
0.39247098895084
0.232985231744169
0.0827268229717149
-0.0376713988384606
-0.118153943395004
-0.155860653029393
-0.162288015516822
-0.164641028088285
-0.162756159973142
-0.154326488384075
-0.15767649011915
-0.176858169314818
-0.210850363344235
-0.25383060097874
-0.303670818769369
-0.355872965390825
-0.404559760758638
-0.43879633127752
-0.46180563502105
-0.48528242177286
-0.508929672882069
-0.538341798675943
-0.564836226364146
-0.597893942923481
-0.634188251970168
-0.668869964033182
-0.695276681926456
-0.67545482664144
-0.54735973723049
-0.258182970516587
0.136698718914157
0.509869879648643
0.748669774241494
0.880566236255874
0.930621265498296
0.921079756780288
0.885512744042978
0.842172327363856
0.793131049211244
0.7285642191385
0.647415604445552
0.536538156203134
0.420103443617431
0.285397023949912
0.149356821140591
0.0442638749512895
-0.0298849453241332
-0.0662275854465284
-0.0849635292273917
-0.106223869224131
-0.129634234615922
-0.162029066485893
-0.190023731129051
-0.223416121023078
-0.262870104846868
-0.296448625536464
-0.324278543047125
-0.341116009626555
-0.353747416965609
-0.381581453350182
-0.38998858287941
-0.467532734209095
-0.538950579239251
-0.538804254109399
-0.547082065932245
-0.546299530181874
-0.554685222699642
-0.550902051851436
-0.528658388927418
-0.435767459391949
-0.225397383707736
0.0742133753931344
0.343671277298984
0.559593995548985
0.701588368022964
0.75650409881885
0.757258529804862
0.727582109848154
0.686773818460635
0.633580382584827
0.570410084831842
0.493028279108524
0.409068404323412
0.308062518801493
0.198674842177649
0.102028199707422
0.0262061464368445
-0.0193389549372985
-0.0444578441142764
-0.0602996822563896
-0.0723533923656199
-0.086078455168773
-0.0991305204845866
-0.119632311807291
-0.148748617578042
-0.18169172135923
-0.219420393630209
-0.249757669697995
-0.276043585666784
-0.305135644576276
-0.330834946769325
-0.353536073294446
-0.369331482873155
-0.386704890336804
-0.406247521790563
-0.424928732022718
-0.446289012519683
-0.462366602118541
-0.479114504263695
-0.488807949767975
-0.44114455506492
-0.27934811914167
-0.047466757367171
0.23160205702298
0.492354131108282
0.663014518025165
0.745089053883236
0.752121046832365
0.728096201240488
0.687269344016858
0.637210360100255
0.576867344094841
0.510537709224634
0.429712010752014
0.328573425035303
0.213863857591837
0.0995211096826325
0.0112169092968281
-0.0625884301601606
-0.114301073181267
-0.14167757198863
-0.156490569064096
-0.164419716290958
-0.175326391883515
-0.191791327712899
-0.212224653804411
-0.233950346524569
-0.251241655166735
-0.27602399778239
-0.303745259823155
-0.325903474709133
-0.345707173497404
-0.354643105600367
-0.364342420438833
-0.37690029066775
-0.388831430830984
-0.40158428880506
-0.410688494098621
-0.428502239015681
-0.450503765007382
-0.465178349542323
-0.426186212288652
-0.305140673834812
-0.0708988237335456
0.23375858144037
0.503356780113351
0.679903651851505
0.750008069538998
0.757259850438857
0.728912926196911
0.668284918797782
0.608568397362347
0.517779581344207
0.513328359796105
0.684768737876191
0.605066495643612
0.44983717924804
0.297168844396004
0.15234996725878
0.033581225363326
-0.0461434134782368
-0.0942089237164535
-0.122054511591218
-0.147510720628067
-0.179125237986761
-0.216613707903056
-0.255917628882867
-0.289950084609105
-0.331443335029503
-0.379341427946424
-0.424457045551867
-0.464646544370006
-0.494366512030074
-0.520662402280677
-0.545636375602264
-0.567332386448697
-0.588002355149112
-0.60204359627973
-0.620109901692465
-0.639055098529326
-0.66086119926279
-0.664071673707418
-0.599085216685855
-0.398840673155794
-0.0477440023220648
0.362960091941328
0.716542161791668
0.928792656712675
1.0492319383964
1.08528401823633
1.05805064878664
1.00164344727392
0.934088303262776
0.857123445165893
0.761142264513449
0.641606129971652
0.4985360510589
0.354721064366328
0.200986281884934
0.0584116450751423
-0.0503358317594688
-0.117649397805803
-0.151216592573407
-0.176075943363649
-0.198384917683226
-0.221702472504253
-0.250316267076
-0.277598661135884
-0.314266551349825
-0.355990812396603
-0.398781614083334
-0.437203921953632
-0.46616285466413
-0.499350634473501
-0.53120773476393
-0.555660754641922
-0.574243606593614
-0.58674180916727
-0.600159532234417
-0.618012735610551
-0.638196985529346
-0.659424031151169
-0.673676434574742
-0.660213105563784
-0.538557404422083
-0.255077830073229
0.139872827961275
0.496637974927249
0.811333458336081
1.02071219282443
1.11177575263257
1.11888986344969
1.07456982464375
1.01149811549136
0.931510140827963
0.838993285790142
0.729266888517442
0.609420085923094
0.463366387634028
0.301241747259591
0.146766917216659
0.0232057141885279
-0.0567601933697264
-0.112332767852225
-0.142305493443146
-0.161931969120225
-0.182140662724365
-0.19899434537953
-0.222793462321888
-0.252088959428619
-0.287067348535533
-0.315533270595171
-0.34278582412848
-0.370450998048669
-0.402613306841317
-0.416292450955099
-0.589766993384532
-0.703308061416669
-0.710944158865236
-0.728619894776188
-0.734273243972489
-0.744867789481867
-0.746579416630902
-0.75712806552144
-0.76876991059038
-0.743427606218324
-0.580785170257306
-0.343845112465652
0.0676099949490147
0.533802139461573
0.915393250708493
1.14967940343253
1.24024955461465
1.25973096888107
1.22365020624418
1.15614904516896
1.06911802741851
0.973224957084381
0.856084115325837
0.710445634822425
0.536751708507968
0.354280349856009
0.193886586697964
0.0468950238379433
-0.0592875027196175
-0.126583500759966
-0.166318170001149
-0.19156059128191
-0.219520367344426
-0.252281104657014
-0.294205498923605
-0.339711895516578
-0.384007428413568
-0.433449512171284
-0.480825887931457
-0.530353966967584
-0.567714024680057
-0.596196879096047
-0.625985225143601
-0.652359050698591
-0.677255224065991
-0.693734183084711
-0.70502464914069
-0.722762259565391
-0.739378703109491
-0.763330868864461
-0.776599315575642
-0.744366911192508
-0.589105055697279
-0.256635612191282
0.201956766181489
0.637309199283895
0.938071064920693
1.15233144654577
1.25304450295811
1.27082514471316
1.23638569624991
1.16535993982366
1.09272934794431
0.999698670651884
0.873500229934648
0.720809359452668
0.557013387990111
0.369185212215346
0.192466497869191
0.0467527947871962
-0.0533942771509896
-0.115328560059159
-0.160565945180473
-0.193498028090798
-0.22497186436118
-0.259817795627666
-0.293047870748745
-0.334540624909308
-0.381076588139856
-0.434495880060068
-0.478796453921576
-0.512813837865021
-0.553336933413792
-0.589126137054586
-0.621950687023157
-0.645664186077695
-0.656861935013235
-0.671396039288647
-0.683324133037602
-0.698358509780041
-0.709680947455495
-0.719127483458573
-0.738266622915931
-0.752739668567163
-0.690204156452514
-0.485843406679309
-0.15628486632505
0.307637754571041
0.757944216143131
1.10605501747455
1.28782573644247
1.36377346159404
1.32398844064634
1.19272845640003
1.12110814323578
1.03548093828798
0.940020354791267
0.812846117500274
0.654331581775213
0.468441302561008
0.293003226412152
0.146124057683041
0.00745030818898704
-0.0850150996224927
-0.142138038255741
-0.175146462832058
-0.199079837187946
-0.229461184986423
-0.264951065819238
-0.307059584671527
-0.348914470574856
-0.3876140565948
-0.433188904122442
-0.477769598292519
-0.521418242215294
-0.555288477998619
-0.580690020490633
-0.604811071623285
-0.621434784645136
-0.636465086517276
-0.646013964785385
-0.650903286036515
-0.66417525889958
-0.677619553854034
-0.692972819461896
-0.702474051414439
-0.711171208112892
-0.679971891453907
-0.525887988931702
-0.189551841235945
0.225501029094748
0.614591753538203
0.966101134231536
1.18224503741793
1.28047671593829
1.28498975050983
1.24460298648256
1.18084478134031
1.10140671538831
1.0022417260601
0.880004260004882
0.7323405407468
0.550834895244629
0.359847691772126
0.186668517429334
0.0507443631968082
-0.043272865591506
-0.10373574257023
-0.145311653360473
-0.179040585163577
-0.210279420231784
-0.245047321902998
-0.297444864819275
-0.349300472109287
-0.401992324382493
-0.448544691981567
-0.490632366280945
-0.535689905401316
-0.580069441373478
-0.620316433578556
-0.648105864021056
-0.663479270508442
-0.681863345157705
-0.696869157559837
-0.712403199655543
-0.721943804674934
-0.736813515105544
-0.752742494807376
-0.772701891571387
-0.774226894605409
-0.715509640884395
-0.488553651270898
-0.150784051725074
0.282069858878086
0.717280616857292
1.00704248451208
1.18103705578159
1.27364434501038
1.29013096913128
1.25789510276445
1.19949370366232
1.11220863766591
1.01489281197914
0.884791981953238
0.704485542590444
0.566645314541056
0.374677674672834
0.187934218397816
0.0618411478941269
-0.02393225513992
-0.0795838577061707
-0.121425491737668
-0.159677071041777
-0.198826938404122
-0.241978044183326
-0.282246458070217
-0.328376217306481
-0.379937302766704
-0.431981519878607
-0.482551660517194
-0.52107333604987
-0.557538120388061
-0.594483777729735
-0.622863691970318
-0.64261452287677
-0.651971447056045
-0.663957637733951
-0.67855383118001
-0.693730236243879
-0.706555921162091
-0.714346899279074
-0.729449974730882
-0.747665944061212
-0.738950441234042
-0.629487430535211
-0.39871308054445
-0.0113589326218272
0.439010608881828
0.832100201909448
1.09384366673909
1.21587692450369
1.27071748896566
1.26446370472665
1.22224193049801
1.15528312557086
1.07225093776722
0.968889862212612
0.836983819930835
0.673037515622497
0.494619773735822
0.331559954899556
0.173667976694445
0.0476635563751427
-0.0410561267593681
-0.100927564784194
-0.140351062888115
-0.1768804382427
-0.216876576676279
-0.261425709917927
-0.308413318937163
-0.353630165026917
-0.405464450285948
-0.454376987072652
-0.500202182729455
-0.54070635464733
-0.569738836119983
-0.599581197445621
-0.622132164489676
-0.640620022722832
-0.652948077341803
-0.657143803480426
-0.666405792820309
-0.679873771318081
-0.694546495899878
-0.706760856425234
-0.716207487381817
-0.731233939741135
-0.727692465855273
-0.618500383450921
-0.362255653498018
-0.00406016586700236
0.447622901726961
0.850148080975236
1.12624019107393
1.26605554466843
1.29954291910724
1.28951815946892
1.24852567416237
1.17904982017667
1.08966086216565
0.982522467617094
0.844552674968795
0.67496109184015
0.487039734652756
0.304295551543623
0.159819105620262
0.0423209777629577
-0.0425253225007088
-0.098326666363309
-0.138227231390074
-0.172716427124501
-0.216417287418537
-0.268415118031951
-0.326481589451284
-0.38201200006317
-0.428739990098738
-0.479620431015955
-0.533150845807273
-0.583649204235172
-0.624738895167616
-0.651760791419894
-0.678871589241833
-0.701747959944429
-0.722176275424758
-0.734854093868085
-0.743356262042985
-0.75418929277918
-0.743218376767094
-0.752211746644174
-0.763592899964767
-0.752985928493039
-0.664498292185539
-0.428401001666415
-0.0356456715706744
0.378091896830591
0.72167568313482
1.00764971075664
1.17511146884045
1.25251727124609
1.26004235507261
1.22820932123928
1.18027300566332
1.11242199370329
1.01589005534764
0.895414251383331
0.749064199890878
0.568458501062698
0.382377609910199
0.214041504188197
0.0843470745670563
0.000289345690359076
-0.0616893158936684
-0.105643587434433
-0.145996846728874
-0.184514244725984
-0.222506284275634
-0.270272326445126
-0.32212771192209
-0.375538612005266
-0.424286121820903
-0.466104593460804
-0.515251353023293
-0.558508300443604
-0.59674124358118
-0.622100240036582
-0.639671021262998
-0.659680720997766
-0.674884988466625
-0.689774537089307
-0.703881423982974
-0.71132843291086
-0.724050041711114
-0.740894554369948
-0.761230478788412
-0.763006680495394
-0.700545300196479
-0.494225350544129
-0.124244566226832
0.330098807399558
0.726992680173487
0.984307054479585
1.16372911487243
1.25030763985646
1.27104929836027
1.24507559018915
1.19189468641539
1.12527482633558
1.03470273730817
0.913009107475434
0.761795067115475
0.596577532505914
0.411462657432544
0.240166911699304
0.0999303667542134
0.00282212442375079
-0.0591151199882719
-0.109515520370823
-0.153523507589561
-0.196765660458492
-0.240668923156094
-0.282088686024754
-0.333848157299023
-0.387839037505502
-0.440701367409834
-0.4843305499947
-0.519630215199101
-0.560348876701215
-0.596470906703496
-0.627370582573878
-0.646819281083709
-0.652697029534318
-0.662405063575227
-0.67290442459004
-0.685766369317175
-0.696519024413517
-0.706205535318013
-0.723257264694929
-0.740706672076433
-0.749729435446474
-0.708388821233474
-0.550697858342176
-0.221755279745684
0.218352540670216
0.656555686971622
0.96781814106824
1.14259751646066
1.2477164209833
1.27668469181437
1.26154779651645
1.21471562538074
1.15045448572323
1.0663179716076
0.951941652215054
0.799658772008288
0.631117938649537
0.460729460686285
0.286674329169113
0.142516329725687
0.0348177732329845
-0.0351201084684352
-0.0839777955033673
-0.129562354124785
-0.173560729730805
-0.224685255226732
-0.274966130789865
-0.322625072932549
-0.379613377253841
-0.434419602111933
-0.489741200515753
-0.532809399475069
-0.57030719296282
-0.610974890164542
-0.643746324449084
-0.670731048286815
-0.685885647582906
-0.693604373889012
-0.706563803813483
-0.719722235379541
-0.734169575776405
-0.739756402295993
-0.750002173129771
-0.767262981481091
-0.777032194829247
-0.722488515027753
-0.552960017582595
-0.249332125638216
0.185341130070334
0.611418162748112
0.943571203781809
1.12977047759699
1.22147346037931
1.26325368836426
1.25547016779578
1.21912924192069
1.15850818209756
1.07889423843496
0.972527824961744
0.83529292952824
0.663279279074767
0.491111763227025
0.327682520401944
0.17537981502469
0.061518176342254
-0.0155947444528877
-0.0632226265659914
-0.102048411628291
-0.148760146793594
-0.197255047849534
-0.245827362415211
-0.289302344191302
-0.335773212307653
-0.390840919573504
-0.442982130072169
-0.49244432867732
-0.531748197902944
-0.561694706078515
-0.596692287965739
-0.624944503669062
-0.648159229770144
-0.656734960998039
-0.661889064328485
-0.671251942713254
-0.678041248420095
-0.690522881431351
-0.696786432301505
-0.708504863481853
-0.726598026392068
-0.743842242874846
-0.719103363770323
-0.603178422794017
-0.341518699723052
0.0718939647006706
0.517606938353734
0.893005225714597
1.11214510286529
1.23355050445875
1.29036858097587
1.28997250115605
1.25809188736274
1.19911642169707
1.12192532483688
1.01888451905906
0.884372316478283
0.714131910487227
0.539493127785853
0.358476482450714
0.188090196141817
0.0574890511192356
-0.0344833139638312
-0.0912049602742646
-0.138085704918555
-0.178038436100396
-0.194063288114417
-0.237198105060048
-0.280675156361583
-0.329539549561315
-0.38545916343332
-0.439169025562218
-0.490293936348383
-0.526708387127103
-0.55956392016948
-0.595115349153553
-0.623854830954326
-0.646585012996518
-0.653319251633224
-0.658725548155299
-0.668661677232821
-0.677460131187974
-0.687868839298337
-0.692598946245415
-0.697212895874286
-0.710415636877393
-0.725665838937559
-0.715287355955796
-0.633604422015432
-0.408196576079346
-0.0254334691136394
0.412462147288597
0.800829086343686
1.04587966735412
1.17894510013918
1.2461732225039
1.25353887313834
1.2303118148473
1.18014592907805
1.11385119096734
1.02172141633316
0.89970013357528
0.740845355178238
0.57310422690757
0.40585245582593
0.246032397096688
0.121163523965256
0.0325710394799092
-0.0195395973275224
-0.0614422661896968
-0.103438972240883
-0.146443934521054
-0.195762859472249
-0.24221487365272
-0.291403661729457
-0.348057090834886
-0.402936578649366
-0.455664754163764
-0.492920696867524
-0.530592244462418
-0.56770725819062
-0.600981995672918
-0.631093280532761
-0.646768046827571
-0.657647130601744
-0.67234672045411
-0.682518698765355
-0.693014664864914
-0.696608087568916
-0.708023028855555
-0.726934570638229
-0.748627268152168
-0.755233434842812
-0.709350692068667
-0.550107865747452
-0.228174641454383
0.200035103289079
0.622412043475152
0.910491925139411
1.09711024285446
1.20418700963739
1.23726044858946
1.2272917393625
1.18385907312062
1.12573536621725
1.05003566165997
0.952512561185769
0.821528334346842
0.674728746024085
0.507074565899005
0.33362371927513
0.184358525706805
0.071114524268325
0.00117025423188711
-0.0502213813035411
-0.0917842822019582
-0.128898719395349
-0.170361799122366
-0.209113056332711
-0.254211089605004
-0.30592719539012
-0.354948407758422
-0.403626433386538
-0.441188284489617
-0.481879773295028
-0.523171723585204
-0.556777437770861
-0.589582848281804
-0.585013927661614
-0.584912345044653
-0.59345673250488
-0.596152593949539
-0.60264761205457
-0.60247936066525
-0.608289111108415
-0.616519823608004
-0.629514386517039
-0.647474739391803
-0.660573647320177
-0.664706850146923
-0.602595471895491
-0.394408308404208
-0.0416001154054354
0.329491046321756
0.707186780980761
1.00665617184423
1.18148390694947
1.25630900114368
1.25597480606236
1.22754755683636
1.18185755200884
1.11422945084964
1.02323923112398
0.909375315321509
0.761452015227276
0.582362178081662
0.394220441654864
0.222152910592319
0.095269976400681
-0.00102251994707831
-0.0720134964463901
-0.120443131380322
-0.162181970410721
-0.198832539200778
-0.244964047641266
-0.295414845690457
-0.345219286506635
-0.397688804012919
-0.44195622969538
-0.488522065523521
-0.533537665235095
-0.568011952119597
-0.597711192934419
-0.613736142769222
-0.629770451635934
-0.644481750033776
-0.657397429516932
-0.670085598577613
-0.673027498958631
-0.678869055801332
-0.688704875789644
-0.698086685357084
-0.708633515288112
-0.712255320789035
-0.686863341485292
-0.56063684917743
-0.2657411090906
0.131943082660856
0.502770441351248
0.845659451960118
1.07543371551379
1.19239507158752
1.22614027672782
1.20626952089059
1.16510962181494
1.10694218852042
1.03192004301605
0.934687463356634
0.813818481429733
0.656275474466962
0.4806640350197
0.310345111953495
0.168474404591001
0.0731531676522829
0.000891543865393637
-0.0520588516035364
-0.0933046512924837
-0.128732893551999
-0.161975438950096
-0.208047984319992
-0.259177631342086
-0.314218718923333
-0.371443556647209
-0.415729310985586
-0.464472675059099
-0.511774234043051
-0.555298643971188
-0.589831360924758
-0.608976077216127
-0.630767828269017
-0.644917740210768
-0.65476959483366
-0.665722694077576
-0.673504491855634
-0.689632478161646
-0.71206321850013
-0.738215829438761
-0.762703370155188
-0.748453323195374
-0.652148090648702
-0.375989228209036
0.0423764972342097
0.445776125650497
0.746542103386307
0.972338554873737
1.10810070732899
1.1593923762114
1.15842783650367
1.12249614718797
1.07008640266568
1.00442564476322
0.91960905947032
0.805189707688673
0.670683673293209
0.506880275942555
0.33775900844036
0.188220569991312
0.0775059251413443
0.0043898202441464
-0.0512885892962727
-0.092969268715821
-0.129320241108643
-0.162818832859034
-0.194683815882795
-0.235157140231254
-0.282422965352145
-0.331023910853331
-0.374744546175923
-0.409577370234059
-0.449911722718335
-0.489910823712903
-0.528234899251433
-0.558464179017728
-0.57347186883129
-0.589531567404601
-0.606769089445172
-0.624986376591651
-0.640948175822233
-0.650541048125957
-0.666941037516117
-0.684176522873035
-0.70274276288043
-0.705377053474205
-0.657146677505854
-0.488670893001208
-0.16756583937626
0.25117349133823
0.632551782192643
0.88605190942396
1.0577272854151
1.13446962313938
1.15160762954998
1.12634252823973
1.08009969795522
1.02637978653061
0.959120831331952
0.864990381331193
0.739485594205159
0.593419676615097
0.418584637800367
0.245482906365709
0.100014749216386
-0.00150169144283382
-0.0680270691621874
-0.12159341987674
-0.164610870190191
-0.206468377688474
-0.247583759925204
-0.287066070807886
-0.334284610074578
-0.381694149386596
-0.427293048847938
-0.466742043292515
-0.499646504163111
-0.535321454233584
-0.565251386551016
-0.589369507861629
-0.605566311411738
